,Cycle,A1,A2,A3,A4,A5,A6,A7,A8,A9,A10,A11,A12,B1,B2,B3,B4,B5,B6,B7,B8,B9,B10,B11,B12,C1,C2,C3,C4,C5,C6,C7,C8,C9,C10,C11,C12,D1,D2,D3,D4,D5,D6,D7,D8,D9,D10,D11,D12,E1,E2,E3,E4,E5,E6,E7,E8,E9,E10,E11,E12,F1,F2,F3,F4,F5,F6,F7,F8,F9,F10,F11,F12,G1,G2,G3,G4,G5,G6,G7,G8,G9,G10,G11,G12,H1,H2,H3,H4,H5,H6,H7,H8,H9,H10,H11,H12
,1,84.6666700794631,146.705987345137,206.167978630497,-13.1607762339427,-117.53993163126,-68.6151944573221,-72.2490512593513,-58.0588188691809,-113.747931292224,-105.28840514667,-97.6298380013195,-177.420357779382,34.3548003923206,88.4108648850715,111.399775850254,88.6594323751415,8.11371031295312,23.5416195671514,-20.0894565560884,-11.4563542992255,-28.0496054568412,-12.1205367950015,-9.61642736182421,-65.6480227584516,23.4908703619867,85.139854240103,82.0524806483709,59.5250189282506,-16.4213087810058,-36.080772969206,-7.43594453354126,-16.389003329863,1.27497259172651,-32.2872286514121,-36.5197617381436,-206.263577760456,-24.7880888160662,55.423506779166,54.7362144786412,42.1702100554476,8.97265017427708,19.1313535512572,-3.90840032955384,50.7673540144206,-3.01464998342453,-31.5074994237129,-162.132564257137,-317.654652551159,35.1134079225612,49.5327748711024,64.454893194461,-7.92470932512697,25.6395450165446,-25.5976332043183,-4.52321846088671,-18.7023976755263,-0.543279244313453,-41.8396246891843,-33.2560444521769,-110.325112019511,41.188323900682,65.5048295609595,46.1681698399443,-1.29446219226065,11.7114683748896,-5.24712587369868,37.419718535466,-70.9283798113938,3.99169234517467,-83.9006594727825,-56.2262238598851,-188.703907304931,14.4862403253537,53.2396552329601,51.341411545257,-5.2143181256306,-18.2788362597375,-38.2537568797097,-22.7373277532979,-25.1668209510399,-15.4164824224636,-36.8337643065288,-53.8276592410357,-101.968571860453,-4.81958103415309,8.03927357861812,13.5095859931316,-21.6604171646995,-38.2670456538663,-39.2433021044199,-20.7719723266564,-30.0435562788825,-25.2904965927173,-55.8156618007306,-62.0933214556953,-175.501665556772
,2,149.609636687461,213.880515579193,265.31484162213,-4.09653933784648,-27.3038734816,-3.58849579899015,-17.5716708100317,-11.2353321867186,-22.0925289443721,-36.4701944596836,-23.1641254717952,-64.8191401215054,45.3577763913499,70.0625583187802,80.4404375766653,29.5844741950223,11.5146863097125,20.4293109549344,1.6037544862229,0.703177595589295,-0.637842238646954,2.83430675431555,-5.77225858231304,-18.5284046953375,42.1934117973597,68.0250431146897,63.8327448673472,16.4917988395428,-0.627960010710012,-0.615044070324075,-2.03165717949287,-2.87314919383516,25.8013631590657,51.311945054169,46.2350238568561,-10.2666322560908,33.4804532163726,39.8868391119431,40.2949238839137,34.7286452555973,34.1136299745949,27.8596468905398,48.7796203605103,61.8458246322043,3.37965749135765,-31.5243409716804,21.468234281152,-13.663029346284,50.963280203986,45.367955597314,54.1306276929763,10.8716980233248,28.8389771233442,5.92174286463978,68.5208462313767,29.1510609821162,45.0747765402884,9.6923745712138,4.99693529614797,9.24105082773713,57.3778881144326,48.040285175618,40.7307236277184,15.0877069722565,10.1552777892502,11.9216896213238,54.3091367825909,12.8468563752176,33.1532909343059,-9.3995782271204,3.36535482131785,-45.2435018409669,34.6145795214388,43.8366566731775,48.6755207429278,-5.48615663012788,-4.66518111087862,-2.71401577807137,-17.4353126000442,-17.9518492178831,7.88182898891318,-4.55445452866752,-18.3548103080484,-23.8711358399069,16.5995037906405,19.6806146039962,25.1990291348893,-6.84514819122705,-13.4369753853598,-15.8402653959856,-12.3493316133081,-11.4576810596009,7.32038584434849,-16.7463794208443,6.45719413550432,-42.8126104657422
,3,185.283244937955,255.466754419741,293.05431801058,-8.36805750273015,1.29155392807661,-11.0579158226628,-15.6866452800705,-0.167947283817739,-19.9560903731681,-6.17478453412969,-16.0355016518197,-20.6217796366127,30.3054855116743,38.7284345056596,44.258040742111,5.1454075826241,7.96314018355952,12.4085083569335,0.297481063816122,0.368424786653122,7.04266324233231,3.62758149005731,-3.21140308529721,-2.72427976273957,30.8848900938283,46.8513771871494,41.1596033101832,-9.29216241467657,-8.16928539667606,-2.66203440059144,2.81628143409489,-1.99350063416205,17.0157045089509,8.34738390107304,16.2544021540816,0.758799467599601,29.8336152056072,29.1447173442766,35.8369294728154,20.6130590386165,18.7596145332182,30.2757548824702,10.3784018080732,24.5830240383366,19.2556309381089,-21.1499068481571,8.83107603566532,14.5480285675276,41.5835835266316,31.9673457374283,35.9467796396775,9.34760516132337,9.92828944934536,11.5235258984303,14.2569676416806,15.4180121158115,20.4667304425093,-0.276635628348231,-2.32981493221268,-1.33095831033097,34.8173286710662,36.1483849051829,31.7915610148184,9.90650551982981,12.9096701538538,11.8953229879844,1.9226718372629,6.20405569243121,8.66763677054769,-19.2694123212741,8.04419559508733,-13.9048124596156,27.8450267689159,35.4043104440752,31.0220992050545,1.14652887896682,-4.39935190882898,-3.82990868185152,-6.8812689375327,-3.44856175455152,0.0164952213935976,-2.80877281877747,-6.90040485069039,-3.23810704864991,20.5553261342066,18.5135849612361,14.7072589678737,-4.75640497419045,-0.304297278904414,-4.72981273634468,-15.4233448805917,-2.42676087559994,3.33682372912153,-6.47148424016996,-15.8837131881774,-12.4625669389134
,4,229.81977238647,320.24032997752,372.861317751502,1.11995050421865,14.511074017475,12.0079219318159,7.04825396540491,-2.64682591597375,3.54170046046875,12.6207402318496,16.7210669440747,6.39046145206885,12.1606087111595,13.9043875036159,22.8840867993722,10.9972535652105,-0.352121145038836,13.7029685135913,3.92697394634251,5.66832583949144,12.8085902952953,-0.878407431151572,3.27426962205573,15.750907960828,16.7382840249165,29.5080365955519,22.1519634289252,15.8889123981589,3.94888985676516,8.02571666884978,11.1642373623417,7.9984585127786,17.2104301234212,20.3182683050618,17.4331545762288,15.5444240852557,25.945008259393,22.2709865112611,23.7914733856869,23.7936896509946,25.9917800191679,38.8441547093962,20.0017962108705,26.3873100061992,7.72677149400806,17.4338307160724,27.1935248092668,9.14797907452521,33.157959349177,21.8975783465949,34.9234629326211,14.1776644819547,21.3826760084039,17.0264665285695,13.9574802796942,19.2778481441983,16.8838097769294,10.7603815108159,5.6501887845825,8.70231862917353,30.5052760131321,24.1171868778629,23.9956834680597,15.9111018730637,9.1990455397281,13.0502822347908,-6.49957168923174,7.87057091646602,20.257864077852,15.4663345745048,16.7577118603049,17.405743698705,19.9858829680406,21.4772768287457,23.1671357436153,7.2660862010016,10.0821142981677,17.5391796556232,11.3758068585885,7.81367928780401,5.39232504323445,10.6052607207803,8.96603819491338,11.670844150146,17.405055905685,10.4754816734758,16.0729012893225,4.25597753770944,4.45419951895656,11.8063514523019,19.5943259458854,19.4978035720906,12.4803798242719,4.38147470343301,13.83355698788,-0.481092057014394
,5,287.736889190402,421.701522183142,484.848308765109,12.3018398069216,10.8925361451602,24.4144153868847,17.916143487927,2.90086165862976,24.2512980867341,15.2791120416105,23.4601687012946,22.8872142197761,-1.10306982443853,-1.59401920296023,-1.76601111355558,19.5955225697544,12.1688770054097,7.44195368399232,13.6740580390906,11.5422850225214,14.2046267053183,14.5350841199015,9.78108046585294,8.58889418317267,11.8842901701892,7.7843487961818,9.24375446516569,9.51725685805104,9.53920899924015,10.2934685418586,9.29860285595805,9.76386911900136,13.0639292045125,16.3171111418869,6.85908423176443,9.76677694864156,11.3263389793901,9.28661559795273,12.8651806862645,6.36543185398386,13.0348690248784,27.6521742111026,9.30647339193092,24.6460727775302,36.4901323187223,22.1318201558697,5.32076760527889,35.9786761287978,24.1619626847641,15.7762962370407,24.2373313736753,16.3681410157042,12.8342400236752,14.782630697141,9.61318355326875,16.8041567108212,22.8999733550336,22.3224416767125,17.9378651001507,12.4759971621716,17.1459707600598,17.1564347629246,15.2903044344539,9.3908812264981,10.3347811280346,11.6605376760126,11.1035673709957,14.1520337545062,30.6201030279226,32.2482895548774,33.5632381168807,16.4882600531437,15.0702934015899,17.1358666068445,17.4321280868298,16.9068448802091,17.8934342944849,16.260102558078,15.841259105935,20.4141374165956,11.1795184804414,15.5034255064593,14.968647889581,9.68752003736427,13.6454093338962,8.62539604693302,7.63035999617568,9.94934272359387,12.3405179959727,18.7009359337635,11.9034330381655,27.8618822405078,24.9367471056175,4.62271733898342,10.6508815812485,19.749921911196
,6,363.436049757438,564.607512116726,651.615387440042,4.81747766678927,6.81803725275313,10.6680892267341,20.6830725282025,24.3299528282078,18.0687158472965,23.7472032317201,17.6520002979578,9.19327786446866,-12.564863550585,-17.6030978023864,-22.4224241970251,-3.16694829156404,7.2106743080767,2.65458576123274,12.0365088135077,12.430155242906,13.6918373395702,1.59387830313153,12.9509328597214,12.5896028567668,-5.57198881627573,-4.3056552499711,-3.8066095473223,11.5850540104384,7.83888253284749,9.98172540551241,7.03476839922405,11.0192742040463,17.3237586511023,12.3597795849455,-7.25393414442442,8.27697422334859,2.30440322335198,-2.17437448879537,0.453473281240804,5.58308191341621,6.92339869124771,7.62064311149697,-3.19554644740128,9.43957128727016,8.52667861448936,38.0664780008447,-6.91369705058423,-23.1664459405765,8.78170459336889,4.46564447044057,10.5271420242971,8.7777003069441,11.8858567517391,11.0025887153251,2.25837244560171,3.11203430372188,7.44812536509926,16.7826483339268,12.500993399517,20.0236269517791,13.6206329798342,15.6471221886723,10.5943142293054,8.59985417912594,15.457108112807,11.6684862318843,82.3689185675139,29.002997879983,19.5425814028713,32.7717750971015,25.0986117825605,31.0526145198673,10.2521224310995,12.3621507477201,9.37230032019488,17.6923844177936,19.3816015762632,22.3810876158641,14.7423804745886,15.9336443787906,15.2408450271751,18.6938007047665,21.8843557363116,13.8320309677647,13.4411966447196,4.1458593628513,2.39823407974563,16.6181995030092,18.3796658196579,18.0713003585524,24.2830034326871,23.2775451435136,33.703739255674,14.8028767861379,16.6813925224014,15.5165563627124
,7,520.578405705489,875.471313028717,1015.65035029708,7.89363752863574,4.20329022173974,8.328930338791,33.0535181105424,17.4770231334996,24.4398452957266,20.904621028104,15.3439143108726,22.1841707044268,3.36565160498958,3.75193445215791,5.64305775068078,9.48241851215971,2.81834831748347,-0.60196699730659,22.7620573581216,21.7248664481149,4.85635280662973,10.4795500465107,15.2677861806378,8.27730475656881,-10.6768698277947,-17.8034194894553,-14.0057500633184,24.1738711314811,21.4327863311937,13.3465863927086,8.98722097029076,8.50512025060652,6.86145551007667,6.92781599052978,-2.45664095538814,15.5453963026484,-3.14736035530677,-2.46736812181643,-8.60326580857509,6.24865581076392,3.54766611739433,15.3568134705365,17.1431309269683,19.190504269669,9.42712569678588,44.7100974443765,-12.9625403902191,-19.912814303907,3.85139387477284,2.94112525786386,11.821054146405,13.1289991291615,9.04335045565131,13.071936100464,7.64223692467567,17.7967268115117,10.4680315675178,28.1852940746157,23.9570692611287,25.1189060096312,10.3002405404977,9.32964847506446,13.1181399855577,10.6083267446975,8.70514451560121,12.9066289828606,71.9869293086776,31.9020911057105,22.8224528715837,40.1505614418365,12.2331097017459,17.8560932879909,7.93966544346313,10.0559799211105,4.15772698531964,18.4966980752379,23.0067970057416,20.0834784728313,14.0462657607186,16.6155745288115,27.3385719986727,16.6445789483405,18.7557852927512,19.90858773123,10.9611736865891,7.77055124996787,6.29792669342169,14.9412427307516,29.9525810628156,20.3248147321638,25.4930401892179,25.6761603906216,24.992404969742,16.500818997516,14.2098532020009,10.2932678338675
,8,736.794808857549,1347.7080097394,1570.72440359196,13.2467858584023,8.67578834289452,-1.83262084603393,14.4276344694044,20.2424025214204,12.1123155235537,18.3034947143815,25.1899843006504,31.2293765111135,37.8748185206186,48.0217220564291,58.7339407880299,11.3952165819592,8.75129212382853,1.92310353557696,20.3819281444476,8.98675695121437,7.04406617351924,12.9978103019284,9.47514677272193,8.69960729416471,-20.9741300783026,-28.5026915253729,-20.9376642091283,15.0284529574074,13.3378190073454,9.2627183761615,15.6049438505679,-0.182936037681429,2.34285983370955,-2.20841360162012,-13.9574183244767,-2.37928437270602,-16.9665823508694,-11.6128583620193,-10.6724165487913,9.48909136826114,-7.26029970220588,0.558002741207019,2.61043676248846,27.8257883761653,13.3840859559987,12.0131953806958,0.988551739374088,-24.6950124692285,-4.35027686553531,-3.85461232884973,4.29451276192322,11.494892514761,7.42600123128614,14.6522525516493,10.6275610459197,14.2095185522612,18.1855117436626,23.8959332860059,23.8113243973075,16.783229764249,7.43388824035446,2.28586142085533,2.98161832590813,19.6328038918446,9.63246040534159,11.5889545962,47.0451422294209,28.1541896222207,13.8212544298513,27.5576035785834,20.8069310832907,19.8979496236152,8.64014018644684,5.36651307277043,3.90552384061994,12.1051461575553,13.8543255895147,18.9911801316312,20.068062902923,14.7408579265475,18.6190731784973,12.7793880816853,19.6731891524205,20.6674660723293,4.20128268446751,2.98824109895213,3.29592104668154,17.2834269191681,13.7468760565862,13.33421280946,26.0040349503688,19.9075058630078,26.9806396271761,7.66197891172305,5.29042543593823,19.6413026102273
,9,1063.51627183601,2145.30363016778,2479.80894318657,8.8234874574573,-7.41695978601456,8.91483163949215,9.51131528458791,17.7146814011912,22.2205271854173,17.4378748311392,18.7854656161962,15.4535891937039,105.40711697433,135.958385766441,160.056598179443,-4.05299487828052,-5.995235596567,5.08154520491007,9.2125821338168,5.64808694960266,13.6343638140761,10.6530099098436,13.6102202990096,6.34629879177101,-14.2906831139808,-29.5322980683695,-23.7906972577312,5.79722175295137,9.94650290051322,14.0635774520688,10.8718010821867,12.9745000274334,3.10802028812304,-21.3648476618564,-11.3912818744502,-15.8327564895135,-21.9829866440032,-14.7334139399663,-16.2182040297685,0.958931658208712,-2.7455741294898,-8.73176939652603,19.3604222620161,25.442561294336,24.5050901707345,-7.54232002323988,-14.7551500860973,-29.0722942086359,-6.44098701758867,-7.47312504746424,-8.11325490204672,24.0450404959165,14.2031782104405,20.5978411424676,4.18880410652127,18.466041810223,23.7429097271797,11.0046267361231,11.7512068016777,14.9746207513235,-0.60196728664323,0.1211391456809,2.76659499480593,4.3369712267322,9.01820317731381,2.66695108531167,32.1480870865071,19.4231212716204,15.5579265879951,21.1010556364035,12.4547589181275,8.78128438958629,5.8209884079879,2.90696358057176,-2.40254225062472,14.7370781253003,12.3246780220807,15.1756935485673,8.87943519344844,19.7750972597896,9.21976842064123,13.5709446264391,14.0777300344125,6.80940049778383,9.41407560645348,6.5299270448204,1.07283916353936,14.8307602082332,16.5546327283373,14.031886843044,20.252804603464,26.0826372628944,21.1494868707432,5.76193175006847,6.554729765503,4.69427062308932
,10,1555.90354982288,3391.73214008667,3922.20700809796,9.19716612724005,-18.7047193195685,4.48984643385666,9.02440306795779,10.5900617242833,8.93463905505723,14.6451146522268,17.7588792874376,-2.05719698700614,227.830296905464,300.30167419569,350.940934429373,-13.4466551556343,-10.3103084880222,-3.00452848801797,10.4196565234033,9.16626448242278,0.0466721360853626,-0.743442952385521,5.55930198334045,2.27537884864978,-12.706810588772,-15.9676409627946,-13.2290103116657,3.97204859144222,9.94238643013159,1.62098962069649,8.34350589382939,7.17592674089701,3.12226713623295,-26.9938715761473,-15.0406414896588,-15.8221136084358,-30.5170245304862,-17.8915068145452,-28.7966979937955,-1.44452560272657,-17.1778714329221,-8.93429901786567,14.369451465629,19.6191669788732,7.55464647256667,17.5693418640622,-42.4214144352845,-19.4827537360379,-12.9096858416333,-11.7561104153892,-11.6386243579182,30.3293649210664,17.7803911155115,34.6801206483678,20.0307367715413,27.6236826415607,29.80503205682,-2.75439944195659,0.810979440961091,16.2771027458566,-5.96004063863529,-12.0863396689283,-1.30490560528506,1.75041249244532,5.77533963420683,10.263148991804,3.442964049289,12.5903785281298,-13.514812731968,9.45767675513889,-10.8724163407951,-7.3205625930259,-1.56596724197607,-2.97723574638258,-0.767149448479358,3.11680701571368,9.63523798174811,8.85291736830368,7.02482753600907,9.51416097639503,1.68593395769585,0.755488851940754,12.4195562826371,14.2184092942553,-2.60694145160051,-0.28443417915787,0.800572989216562,5.72976826977629,7.6433813963713,4.52571346238892,7.48939738328227,-4.06385438540383,-2.48687320103272,15.414449737973,1.20365393931024,2.22465457867656
,11,2380.36625147312,5372.04159161301,6229.36550486117,-2.36195396299081,-20.936655179341,-10.0315567082189,4.75299572946915,4.41186817911876,-3.56204731881371,6.55052683541635,14.6251115732066,21.1051030981844,459.290842046013,628.275736666516,740.795991236712,-4.92176298109916,-9.16664243825653,-0.801084405604342,5.38825641816493,4.82313381029144,1.15763212186175,6.97123845961232,-2.29744945262973,1.74076905897891,8.84287049131672,16.1736176044706,11.4200000895808,17.0755479714135,5.36557696322598,8.36237741488185,3.2960577063368,-0.575108110754627,-7.97792433414088,-12.1269109387467,-13.2468019269381,-1.88397754380276,-31.7892363865385,-23.6676355230711,-21.8317703525245,-6.15448666733937,-12.1553960201009,-23.2757230707002,48.7559749776956,44.7724173040315,33.9875867468272,0.0988505354689551,-9.15489161655751,-21.4980277223076,-22.1627968540979,-17.366497041121,-22.7481425651313,50.8273190200598,42.6291122115117,69.4621045625518,48.7753312511213,67.4261010851205,68.0824293743299,-2.2372727326665,1.56533847526771,3.89905899436053,-14.6943840038239,-8.60559966216806,-9.30050171560197,20.2957401269996,17.5919004852331,18.502349124491,-7.22554573987873,14.0102168331177,-8.37698340656789,14.0124452842592,-10.7649094142571,-0.474577846890497,2.33398914229656,-7.84256616167659,-11.7160556757171,6.74018121044082,7.23724822253371,4.07446940946375,-1.46854309642185,4.10425549577667,2.9316065276098,6.27548101740103,3.27467613165209,5.43686323121528,-0.272512025677315,1.06296428875885,-1.83587439450366,3.60800957525316,3.46859971048252,4.24946218873174,2.85738820830375,-17.0629779890314,-9.30293710094156,8.77259734509062,4.9320706495364,-4.34034790720216
,12,3574.24452731876,7865.28790971969,9213.02293258657,0.400648754355643,-11.3816109559975,-7.25867814800131,-3.16812693301745,-4.79274034526406,9.7129298777445,-0.30793289958001,2.96467317498718,0.152469097862195,833.429891608592,1159.98901754197,1366.86653055928,-14.1377189499417,-8.11135625288262,-5.41697521566857,4.98539136927684,-0.302503937835354,-1.6829255743769,0.345241939934567,-0.69421127986061,0.363867005859902,54.7378613908922,80.0158307675501,69.4231304809155,2.68950727980882,1.81655951331959,-1.55173825862403,-1.33696398483153,-3.86575459520191,-10.2552487674693,-1.63453635615042,16.655707796006,23.1567990226613,-27.889193745963,-15.2930789164311,-19.4596298370352,-13.116541015519,-13.0815932191599,-22.6230564595026,84.5602584636799,84.595559038311,75.2670846894616,15.4721432978968,0.863112928247574,22.922402106753,-27.2738772713246,-21.2186632873781,-23.1791502366714,108.312603518209,103.856727273562,119.919169035813,110.908134682746,129.729745674385,144.414733583077,-5.00805146773018,0.95533228077602,2.90237328653529,-21.1595618433166,-16.228161762202,-17.2145868038297,53.2672063614991,44.5908638204337,46.0307119655172,-39.3405639287212,5.90608747286205,-27.5903167749348,-0.187700623990168,-22.1206317430469,0.859003395496984,0.705262895275155,-6.64484297439594,-11.7292709997346,2.67131384260392,5.77045766581614,5.73617249340805,11.2182643991728,4.41990565703782,-1.43028024081286,-4.50232080945625,1.44264689637839,1.34994108657611,1.14213990468033,-1.26364025711337,0.787717176884144,-1.57265145174097,5.48077893637128,11.7618108792003,-8.15254526335775,-32.3826646641246,-9.50885742773607,2.98927682147587,-6.26913948025685,-8.98816769174846
,13,5342.65824141962,10246.6448892105,12087.1855118773,2.77139376789637,-7.05005529718983,-17.2780681615986,4.2257680035118,3.34386230113159,-4.10757232470223,10.7582332221345,7.58045350574503,6.19800310952269,1481.0735022535,2101.93484938113,2469.81685966317,-12.0039080734496,-6.71051109781547,-22.2666777566883,7.77886405893332,11.5248873786886,0.378077810873037,-2.87842274906779,0.478005313501853,2.21693445026722,147.788043329149,197.514735146086,175.528905480819,3.45291905532758,0.731090494968157,3.19981023948276,-6.1382715223881,-5.25402569484231,-11.5389100215052,3.63784274345016,33.8415023954094,17.5746179042835,-2.22329941991211,-6.18202257690155,-3.53838415807786,-8.38110061515363,-13.9634095218016,-26.0035673407283,179.689321949467,185.967605451311,194.609282038804,40.8770196387959,53.1424099665983,38.3729315515247,-28.9624494031323,-15.5517623550841,-31.0908970385071,220.432832105447,197.831048586526,254.714243838083,220.283009635263,295.41805482683,301.445427376202,4.36430381480113,10.0804584584203,20.2441843208562,-20.7024525570223,-17.1312157553784,-19.8125431453445,122.837175507695,128.856116834806,122.791882704267,-40.2589430271764,8.79960896914054,-10.1175266067221,9.94343041490174,-14.2916477407543,14.5436701097024,-3.94067765108139,-10.7968818143236,-19.997562971228,14.8448773800046,18.8137301642382,25.5912199607546,12.9182881911665,-1.07466860280056,6.2277273206164,4.57491914610637,19.308699763661,11.3512328803236,-6.38532586036581,-4.71920197560303,0.180167234127111,6.92388482224487,7.92193832611611,15.7348884640887,10.2670227660201,-24.8963018513186,-2.74170194471662,0.129497494914176,-6.04653647790656,-1.10592816497774
,14,7600.29642928423,12289.4945756052,14584.2291558018,-4.30665689564376,-13.9127460461405,-6.99178801009111,9.52327002224501,10.9882389586028,6.33001035851066,14.8706153447756,5.78523080337891,-3.36577007663891,2475.81632603515,3569.02321557393,4170.28576154528,-3.90491468177243,11.4906746484921,-18.3893476270987,14.5626453999057,10.3006113258516,14.4511191067359,-2.73549739830287,-14.0420778044909,-4.15475205322673,295.405935411643,400.353836321096,359.706525610598,17.9835724450695,3.94414954111016,12.3218089322309,-8.14857135885813,-0.922693668378088,-20.1850904485764,55.5419577118864,116.928950665664,72.3681942222011,20.3821352080777,20.8597627363652,20.2634542270962,-18.9963140797645,-16.8632536984451,-47.0646766296295,334.923347656098,382.613767802002,370.055612557047,109.882544181684,129.793208946456,146.285717894611,-34.9049988954657,-27.1610205292009,-36.2834831807231,430.657056750881,392.182392757951,491.537426254749,438.413423051381,554.147863162292,574.367404374887,41.2062287642357,38.4282250727374,42.8537552916714,-31.3937120767441,-20.7758730902733,-24.6715753172484,264.068262453575,266.053013510385,262.368659887322,-38.4848890944249,32.7116543014217,-6.05717066412217,43.4076056679296,11.3562267961543,34.9834199351262,-9.11454269488604,-10.1633817411875,-18.9308101986544,35.4973350768969,54.8202462635427,39.3494808389123,29.7685071420083,24.176077924194,21.6574214754191,24.7621917779989,41.1450324315738,26.2553232093424,-6.14563098239523,-0.362638144925768,-3.79270795325101,28.0537224332666,40.195347285784,39.9171290039621,20.1428198117846,-18.8481716255919,12.3448189675892,1.2569185457105,-0.669817232766945,6.42214244226307
,15,9990.37057156601,13824.7706875157,16499.781493662,8.80962759849353,1.82367590811373,6.31745549434709,40.3443781417836,14.9786459271718,41.4493922465608,24.9474858983831,11.9348649773647,11.4267451949227,3867.04185166633,5544.0305606815,6403.51677646166,-5.92890900251041,25.5133480588065,0.488470971426068,46.0033063875781,29.4736931098378,24.9781091872337,-9.26814962716708,-14.424462300818,-18.4425073657567,520.666943730196,717.470736172778,641.488663989941,39.220919956806,25.7150608476368,30.3247133768855,-16.7068743425871,-9.63323841046258,-19.386504272582,152.001741448441,234.803424978732,166.275893391488,70.4049325395717,55.305712029578,67.0994219824943,-24.6034638535357,-28.8127302390367,-48.3172036020715,583.164093086709,683.31542990122,676.151899558197,228.085531193907,290.14916277187,263.489619876487,-32.4631845280692,-25.1212016629697,-43.5287751240157,758.999688794274,716.597308329076,880.338329539461,766.922731408164,988.196437777418,1018.61890265605,78.360238229383,91.282330627655,104.671888823259,-16.3267197052837,-24.5806296394157,-23.5029706294763,490.851378311382,501.105274990446,504.1431024803,-23.3248487404162,75.2084635035171,45.7730746392281,90.7671431811905,77.5849738355719,94.0918617407751,-5.49562953071654,-15.1055058952325,11.8425997230052,81.5953274499207,100.390737469459,110.332878199571,49.5360976386182,55.0812304598903,47.0759591024098,46.7159755429166,82.2397995321562,67.9403628731989,-7.90803918850997,-9.41541180616514,-10.2636603157544,59.144357234969,91.9711663513935,86.2464938943695,50.0175304433178,24.4636885022173,43.1281936490086,35.7273900008859,22.583032803399,15.7216463086388
,16,12220.5829306845,14887.467490528,17825.0967824007,76.1307460440476,50.3634895252089,38.7754609719141,103.166695407846,90.0435025743382,113.360334817903,73.9231613999,79.2415953432392,78.2309577986953,6282.04809091223,8530.13339006309,9461.28107388752,54.0681559102359,83.4429710622207,57.9949474336554,139.613703315239,109.801062730901,108.91362792722,-15.5733567119814,-5.04416910814689,-7.30603231468285,995.261424446124,1408.36257641717,1267.45054553207,138.821965444429,73.0437409349834,110.25129291138,-19.4197159041323,-3.8677890918816,-23.5638548331826,363.62349175131,534.891319985771,364.804206029687,194.098171914301,158.117511450632,178.083744114497,-14.9422073353617,-26.5649709746549,-40.8686975000119,1170.32808602357,1428.07675395634,1380.2157747754,543.342501825959,650.128583231557,556.845542868139,-34.9420081780654,-20.5605071914897,-38.6894609116507,1506.21912234587,1455.0506362334,1754.3301982578,1532.96865340128,1900.22127896088,1970.95298145319,224.692370401634,244.751129686661,269.460654437755,-17.4330415955073,-28.3672390618267,-26.9993895197158,1033.95173661984,1036.52018347232,1044.31363138242,72.7653692521526,208.258110039407,165.300206154268,239.660434401776,256.603105235004,235.41499500908,-16.14818511658,-19.4109811698117,2.34956394414439,204.661206040651,235.839488278151,267.284362777476,135.923544987097,155.568729529017,134.775310124596,141.831013887263,192.539386836994,171.209584986515,-13.1318029578888,-7.85777680131287,-10.7261357685265,144.182884783255,211.549312297149,219.549966616707,175.840184885235,141.429115041061,175.345181121698,83.7682633565601,86.3723072414286,79.7460365050538
,17,14155.925509959,15632.0171935424,18766.6759294639,258.878899255385,105.651697454154,108.09039552209,201.458579766147,160.972098993136,245.146041643041,163.123109793563,168.669396756374,134.933388772592,8807.2095838212,11277.486568819,12170.1254761166,150.104075560448,180.468157591649,101.654998759954,257.435133880431,214.793322889257,219.182044598238,-16.6934313977426,-8.66616384567533,-11.9223736799786,1642.53275766185,2351.05774243077,2131.1414882754,279.429189706507,147.092279227114,209.547962452903,-18.2244892777962,-14.0675563248533,-20.7377966909271,668.865873827244,950.397636107025,691.013582662123,370.380956990394,283.703836841672,332.473859860921,-28.04061719525,-17.9108022907021,-36.1142471892672,1897.26539055611,2313.08267662487,2254.47261468658,956.19822761125,1109.10836649266,963.876311015854,-20.0387441939165,-3.96438186546493,-24.7369524255673,2513.57843781187,2484.24111496953,2939.41830308333,2498.05725029847,3034.63028551612,3198.09134879406,448.955457594162,473.593373438822,495.814238374356,-21.4727138955996,-35.1881901809447,-31.64181567783,1811.85633548887,1850.58418572887,1861.06712043862,228.241036366158,399.485945115703,337.750195651899,484.144569296657,535.545648051198,464.284260631629,-14.1464985424509,-22.3907676126,-2.66766834292412,390.774512170974,457.499370957395,507.022521445494,276.356165696157,312.996643239277,273.760710018193,301.57007477279,389.622001966501,327.119773530513,-8.54305763390494,-11.5509038735336,-8.12545200208024,290.219188950126,413.350952682552,414.039312973237,338.347134956279,337.769505259759,388.629027353809,189.816171136317,183.20491160894,175.220687123507
,18,15545.3300873804,16119.3783363499,19368.2617805861,399.017265749144,241.417766582357,228.390432073147,420.863950041858,341.710912714699,494.080771108873,350.10265858712,350.253546969578,306.478665425754,11227.2807695617,13552.249387075,14287.7554431382,319.6514861082,342.435921959082,254.631479526128,546.76375049656,424.108644057464,458.348913512556,-3.51291302144637,-12.0977026422997,-8.52819870447092,2752.4419355885,3979.22913286517,3611.02819340203,571.854228998585,314.451286143771,408.443623887884,-15.3218518256353,-3.47074875359613,-13.7518272346751,1222.11070713455,1739.69184236413,1290.82623544736,702.986498520615,540.633871603992,618.26190699057,-22.517941188954,-23.754430119624,8.30402659870288,3018.007398943,3585.78164379902,3552.69730967077,1630.62871131833,1791.27637578421,1618.25956297378,-5.18405106892897,24.1172382740542,-7.60419122507756,4133.66650360292,4175.27031140056,4796.47247968948,4004.40477767344,4657.95607412933,5040.40824230412,890.791775396514,918.157356295739,965.937392164804,-18.9204625916982,-34.4604996047519,-31.5837100447689,3191.45738060265,3260.6789657292,3270.64313927555,551.603006221236,769.884928456169,714.940125351257,948.887261184716,1076.03373665935,936.485901474479,-24.7834402906738,-21.2185649014764,-8.33805340379786,760.962709174622,889.337483271416,985.651774687273,559.763800792156,644.387720089707,561.423808229179,602.703648036122,759.147983354558,651.334241999552,-14.5938840537774,-5.92224933027501,-13.6937882441534,569.893279684737,819.074742673236,818.216383846121,691.536800335889,736.164483937919,817.999270184953,414.742825136478,369.030029539592,351.499455799772
,19,16615.7476243,16499.1571598024,19823.9256356963,659.575045699679,475.28560050719,463.323747232135,773.346467356877,658.189693204862,906.049578649507,701.133173131869,685.252333360356,616.981033643953,13396.1729823446,15344.1335515853,15904.1990054549,646.401987554549,682.067337841325,489.822719070911,1016.9318100851,828.741932377855,870.553080896812,14.2651478199623,4.9603328946796,13.3494434121676,4432.37760029976,6372.22530270727,5799.03271650281,1068.27711931596,573.409902416957,779.42696454306,-0.593016252735652,8.6090343880187,0.424771575461818,2071.60898378555,2885.32279599841,2235.51634714579,1246.04599004421,959.376158556429,1111.63968903707,-22.0404787857997,-1.49910897514565,22.305569770926,4337.81577754053,4961.88105315754,4971.96857469118,2478.71486567149,2692.12744499891,2430.42945198213,39.7609874471536,86.4455416379378,38.3469755466404,6190.46315557228,6391.42536256712,7215.56997708258,5765.05052344748,6458.01828893986,7210.0203744606,1646.97904601093,1685.54254848569,1754.79533126025,-25.6974917288035,-27.5520475783615,-24.2368195285017,5162.34777060973,5302.719084807,5279.19648452808,1123.0767937445,1406.96862187254,1313.26852629654,1760.00153761011,2015.93489020984,1700.63772106295,-25.7350508895779,-26.9846343614417,-14.8252343414233,1399.29532026059,1626.53537955587,1811.50640623804,1081.84464994787,1227.94674826554,1066.21870352911,1137.43723436273,1430.44244453883,1227.56985912476,-21.2344881741992,-10.5778229647894,-15.0850159341308,1062.89156139422,1528.96759000559,1520.27032131839,1315.34049298519,1427.62748146588,1567.2552368828,777.486285382342,703.66222044495,697.147806011892
,20,17370.6757780951,16764.4097011813,20135.864113554,1229.30615928691,987.398871391781,951.536783190597,1559.5809578082,1367.33602260197,1807.256324522,1450.67237508004,1438.18665413451,1262.86199919216,15021.8691021554,16553.1000679521,16958.4332903163,1292.40120851875,1353.23726856091,1022.07719412326,2041.40885628827,1657.08518007327,1768.31250823537,43.5653693465847,55.5490850643564,50.9509110259532,7054.32388926836,9635.63236499731,8852.43121611189,2060.71748649893,1148.72051202969,1540.36646546912,23.7439715445089,40.7371642479275,27.7059087880307,3478.40609650733,4698.52697785574,3795.5006606988,2327.09338090004,1801.72910747746,2080.08235513856,-2.76248006145397,27.1150970233703,45.4614960134868,5675.98267560191,6284.07116309761,6344.13002291987,3633.69618846492,3853.33823821968,3618.74821065311,120.465824502673,203.134770785214,138.269647954526,8429.63495508331,8931.58184533726,9385.13889562478,7554.92475314132,8007.64531490975,9127.24180462171,3106.25301858876,3111.80320615278,3259.60394007107,-15.2723080224523,-20.1154168187122,-19.3714361766724,7777.61797414818,7935.48861718717,7797.56340926736,2241.92998630205,2581.24049856739,2453.30699584755,3312.2574198614,3739.58078765444,3187.89786376921,-18.5895075713979,-25.6877851078089,-16.6849261278112,2632.52276149156,3033.93238134593,3345.08029352811,2105.13908338704,2388.17084463306,2103.10799217699,2240.70145158069,2751.74975014093,2382.46181214376,-14.1848292170043,-15.2314030275111,-11.2988455945306,2063.41153139226,2886.56222544074,2871.17526025009,2487.16972375404,2735.07537322993,2972.84628093056,1562.57008644237,1398.89958523095,1393.10587764065
,21,17918.5519767067,16966.5915010806,20364.1982795309,1976.32979691078,1661.42685730062,1615.34446756445,2574.67029278493,2246.39342679307,2907.88249902878,2414.10397408811,2381.50785207952,2077.6907396819,16169.8131288882,17372.0791779006,17667.1993635135,2142.50624042792,2198.13094388205,1730.40530256554,3273.26885044796,2706.52963087091,2913.37618566826,99.0642561157883,106.450999415089,102.863902465772,9613.40253160811,12606.3519753134,11648.7639234074,3199.22691430376,1915.16970354103,2508.79739075981,58.8223794252463,86.596474827692,78.1541693548224,4695.28735680298,6263.37908702556,5265.79025991529,3684.69154517286,2903.33044174304,3346.46280733125,25.7444496011321,78.8384541247124,97.075111115756,6761.13157974412,7323.15853157841,7420.30086330242,4364.95586145498,4513.42501422067,4317.79874290944,233.789362184822,366.120056825491,276.30016061652,10270.0959520572,11039.0764062216,11226.4247093629,8988.90587339072,9277.08575713816,10721.5082633148,4778.033722822,4676.68631479622,4963.17050490893,-1.17691345082858,5.4752594682468,6.67895581782432,10057.3580248958,10247.9217325275,9968.77323336901,3467.46085506497,3862.65730273209,3674.59162079208,5098.90749173271,5583.30935012661,4828.44027532388,-22.0219137018585,-27.371139675085,-15.7891731082091,4148.748929119,4692.60558480789,5173.11160777417,3438.87373489918,3859.88927082223,3425.41164510757,3699.8208766936,4461.53473510822,3893.77733507272,-20.4201850493864,-10.1912932833238,-14.0378730986267,3340.26783514048,4557.9809653299,4567.16188258624,3958.30093697441,4291.32127591778,4622.30823081509,2651.40810536273,2384.56725508205,2360.84507163635
,22,18294.155603883,17085.083991106,20505.6037535254,3256.17761772871,2858.3618723393,2766.95108230916,4213.29042780043,3714.94677570938,4604.0907965878,4019.94166946812,3947.13742094647,3496.29024797904,16906.0708248207,17881.9117929502,18102.2956914234,3472.42558625813,3605.54622467516,2990.75358224197,5275.77646782925,4478.73288610989,4781.88597514748,202.500140407288,214.646703636206,237.860034363152,11987.448951478,15011.8096546098,13930.795341304,4858.21682004908,3254.36444454646,4114.45099331426,151.139380185122,204.555073947916,191.858552512863,5963.66092820668,7676.43874651139,6799.87318585956,5811.40701137533,4785.55941298059,5446.8667770152,93.1369905535857,180.767003516322,189.488945485829,7511.9011871482,8003.29275209719,8128.78441839468,5030.18859005993,5130.45180455033,4993.74806916782,455.584157423265,673.606685675292,531.156548543731,11544.8753726079,12517.8737120774,12430.3073656004,9967.02449072608,10114.787290434,11782.5029683264,6908.36839564,6588.39314830785,7108.48365325033,47.67733047194,46.1519214643085,38.7957413307931,11735.7829749733,11982.5848877656,11532.4977228609,5152.01676889543,5593.79395876095,5242.6792061392,7292.91008401547,7655.26989951342,6777.25889039479,-31.680795105276,-25.8255943159365,-25.8470821014671,6305.01394955944,6886.48066257446,7470.98525515497,5531.57251294439,6029.66080671035,5454.87952999767,5972.91816622776,6969.63637768684,6171.49969054475,-19.033875683599,-19.4235483088105,-9.72266768025293,5316.1092256379,6903.73165056209,6872.47192468531,5973.00320278429,6337.34217533058,6675.8377355736,4443.57128402129,4037.49728465792,4045.84450547343
,23,18580.5792178144,17189.40595657,20619.0590470962,4873.75359385576,4407.67413246666,4318.9773718214,6076.59905270015,5503.54418425393,6393.55863875428,5965.48577309676,5877.16783542353,5206.92190143475,17451.0388246575,18258.2717703839,18425.8583828069,5037.88595634457,5283.68701914141,4608.6827388633,7429.62526322236,6593.36569210513,7061.6211042395,393.248486068965,428.075902349798,459.018483271151,14014.4400995857,16875.2016150359,15703.7561884098,6361.07763412048,4973.18758032543,5938.33877104419,300.482965103985,402.627346960111,388.485713128802,7048.64468317769,8850.96918989894,8098.66101541805,8262.02608975254,7403.04461539681,8178.41017075328,200.54144361962,350.467717584009,372.306334256506,8117.52440391192,8563.47810445621,8711.04540157311,5619.6109439389,5674.55060362444,5574.77528283058,801.454904843821,1181.36037467741,950.80033061582,12511.730188599,13637.5640950847,13330.1382689968,10730.5315888451,10772.9490177278,12607.2184345308,8813.26186493426,8253.42611220386,9010.73073361743,102.161741600397,113.855818139922,111.090155087134,12988.1393353384,13286.2097631036,12699.3407064055,6681.82384343833,7046.24129702337,6575.10251533917,9165.59057713795,9322.44322449944,8405.9992029509,-26.1980988027544,-21.2622042786224,-23.517022658888,8294.46510688115,8880.48015234265,9508.57469831379,7774.65320540115,8130.48194661568,7566.16346399031,8420.28824317753,9363.5050759008,8466.29126853105,-23.0893694516935,-12.7184631375285,-14.6800558555387,7414.95403993323,9052.41924504801,8956.81322565362,7718.97269759479,7896.69830677198,8426.93735669026,6691.58835611316,6227.1671446637,6246.91261873127
,24,18805.1313799379,17264.9457854584,20720.4293974862,6737.39741042109,6351.49059337894,6225.92967324891,7947.56801819297,7355.47839527628,8004.54578966825,8138.6525071948,7964.63281853525,7135.19708912376,17843.9382645577,18533.4009322255,18658.5357251232,6599.3555993263,6920.74687231514,6634.88548476246,9453.26204601567,8777.31263144829,9310.90819417979,772.701264718464,822.619726824385,876.545418750959,15534.0977449131,18179.8127480476,16941.4909074505,7644.11266135446,7131.94754350278,7786.37578995896,601.827494204693,784.167002532536,773.006930709916,7926.29080178306,9720.56974234332,9105.60195491356,10578.5330537976,10131.7846357677,10902.9915116233,431.242964780343,698.158591386198,731.863923060407,8591.43331478527,9009.17257262515,9167.32756168595,6111.66540703283,6127.62173974686,6038.90133213641,1415.93415163074,2096.76436307109,1688.46806476223,13217.7571404284,14428.2565801295,13969.2658686602,11320.3817097461,11264.1240007062,13232.5478162749,10313.1497916674,9510.97714953769,10472.8709003432,218.287381991122,227.831977707304,226.320866009342,13821.2525827804,14186.2531444209,13487.7106710585,8051.20717799943,8328.73450860947,7739.89292327171,10493.7049002815,10410.1180111837,9534.96733937492,-23.1478647828908,-11.7016014422607,-16.5371341275068,9991.66958512894,10481.7520445605,11085.1510089273,9765.47971813247,9895.26484555916,9410.5542007378,10591.323182015,11353.3419427987,10436.4422734522,-17.1127749400875,-7.23006296946278,-12.3414543729732,9281.92815713462,10762.5403245343,10572.5454726464,9126.69916433597,9076.27677987173,9654.52462397823,8959.89524631655,8630.01542904249,8715.45573996186
,25,18977.5925843294,17326.6103981965,20803.1678675832,8263.17118171544,8004.54547392961,7892.28474068761,9370.43891917469,8797.79044116174,9152.88910884421,9894.9186407381,9658.64282544282,8721.35952770365,18133.2685182328,18735.6484501369,18829.9038984171,7821.22404051567,8175.66155057895,8356.51029406981,11008.3425750623,10498.2756067259,11130.2584968576,1502.71273818886,1566.29416132182,1691.8150149689,16614.4571039299,19081.0590534009,17784.8974748864,8545.58763848379,9005.33211618431,9248.62055004713,1214.91937163535,1548.165065535,1507.46214026626,8600.39123626615,10353.2712237599,9848.367455146,12500.2932894705,12657.9200787201,13306.2613448559,862.259244187931,1348.76145284923,1417.74755824782,8952.20243873179,9347.25428822394,9508.10356834064,6495.86713973047,6481.62656849508,6428.11704806035,2526.99310519448,3769.23025794735,3060.50517766915,13739.8941097872,14996.7982256979,14441.7245297906,11765.169115939,11631.4837025055,13702.6434678769,11249.1659071604,10297.9701851929,11399.1493235609,451.631966914042,458.729376153208,465.521947904716,14432.1496410732,14834.5207030897,14070.0116050461,9070.3345648034,9259.66558829698,8581.81337907389,11244.1135195713,11010.2820488359,10168.221336019,-16.7090816324881,11.3243927236108,8.38256387787715,11137.3980310313,11513.5745232089,12071.1885065613,11117.7116421565,10973.8708394049,10632.9015630497,12050.4690787112,12578.3890418918,11717.3527337827,-20.1890378640619,-12.5189541844502,-8.17230995519185,10549.1715354855,11769.0632952064,11481.7822757945,9972.23155267552,9712.96722620936,10319.6116420769,10680.5075993265,10560.2102788859,10692.7391276342
,26,19108.2990251126,17383.5397052876,20855.0368632536,9265.31021471023,9147.73027951662,9058.03131230629,10224.2559515159,9686.004306577,9792.93605381598,11028.7003344608,10765.1098951262,9761.99603335601,18322.5885466695,18873.2618060557,18941.9869791017,8607.97638413383,8954.055213524,9556.49477517719,12009.1737704619,11544.6928163758,12251.6452525197,2631.13688165473,2734.49719886132,2944.37901906993,17330.9420460632,19663.2395929511,18337.5000952633,9091.2694986807,10365.1666040711,10191.0996663965,2189.62056047896,2762.20146181081,2712.36862596144,9084.76350121069,10787.0471900897,10355.5189557844,13862.7795462593,14585.2622694206,15067.3985646794,1603.68248647949,2408.90997985844,2512.53310833446,9197.40368546759,9555.77429742677,9730.10438425527,6768.13059582199,6727.68825046382,6703.80388259042,4133.25045913709,6087.32760458537,5031.46396622164,14083.6795931666,15363.9068691838,14749.5386538197,12064.3708222148,11884.041015239,14013.3805266394,11722.7180986115,10705.6797220626,11860.6033472323,807.694592491838,822.18537778153,834.185788586336,14825.318583267,15297.3948425161,14454.6297750494,9727.43199650551,9849.86471142117,9111.83117644253,11573.4843113889,11275.1445171398,10455.40813745,-6.14793225590711,52.1831897306702,41.5230608941047,11738.339309613,12048.5085600888,12545.858625829,11720.3923714487,11384.475466497,11169.068194073,12726.4418709438,13073.4515964846,12271.4223644473,-17.7618063539012,-5.60363326913193,-7.4316928731796,11133.7514466146,12159.2151647609,11790.0702454632,10351.2627762355,9950.94173233895,10594.5107548039,11606.1253046075,11721.5308268425,11846.246190258
,27,19186.2808672903,17412.011395309,20881.7692582141,9817.35449129868,9796.33603037885,9743.42621132907,10669.0352284366,10142.1809360448,10111.3049941958,11622.7762842259,11338.9007684548,10317.8955842836,18446.9369079333,18953.0827338297,18999.1533698068,9089.9543242017,9374.30914665078,10253.1355593481,12564.99939518,12040.2157197908,12799.9839250628,4149.22163958206,4261.59034984057,4523.43331561804,17798.9455040992,20039.2366785258,18702.2583887989,9427.24790353046,11211.6624342721,10739.2101032356,3626.43037830105,4437.66217527459,4359.56083565204,9395.61315886403,11069.6341871796,10692.7577208615,14747.1932779691,15872.1641950443,16209.2880907533,2708.30991758831,4013.40672102465,4069.83464472495,9356.65318328089,9665.48777405107,9855.38555104929,6927.30083435469,6882.84620247341,6882.68090588567,6187.69783344041,8923.25075830542,7740.32243954709,14286.2626269942,15593.5802001919,14937.666859103,12249.1566189692,12038.5472447425,14203.4089558822,11938.8772144847,10917.2337330578,12099.8049196844,1366.56726101758,1356.09880561997,1380.7601650911,15077.0152671063,15622.5679809577,14708.6161214453,10129.9607886775,10210.0351864588,9439.18416882993,11748.7623588663,11416.7574394497,10611.9830271372,8.51196463475571,106.550966101307,85.8273643075372,12035.1366515688,12309.2321049178,12764.6474012726,11878.5270934182,11453.3756938009,11348.9223147789,12912.9920701655,13207.5528250919,12429.0090815285,-9.50594947209993,-6.38548919375626,-2.69593023640755,11298.6483459044,12249.8793829638,11833.4630280278,10522.7944833077,10060.9001100375,10729.3003833068,11949.7155326836,12226.239922957,12310.5621705485
,28,19247.3437046329,17437.5913965831,20893.7817161456,10196.6331577697,10225.5136978018,10174.5380340956,11015.8335870721,10466.021798272,10381.3984998423,11999.4083500693,11706.8401597067,10664.3045089651,18553.7968850222,19014.3643028553,19030.1587245901,9459.42407232071,9691.44406180197,10714.5029104522,12967.4457789305,12348.0176834306,13139.6611643533,6409.76191939096,6455.88072392944,6824.24274198005,18136.9415632949,20311.8205903056,18951.6484824857,9685.31154706815,11778.034129434,11128.3404926591,5907.65438750854,6917.55059096079,6826.39987840749,9618.33850472116,11268.3198888028,10939.3880238437,15345.5831887745,16742.8885072145,16975.6628631485,4582.66537733085,6289.481612081,6402.76607239459,9469.76893997371,9735.20010045807,9940.6486640972,7054.21614484671,6984.93577838621,7016.23108313269,8814.76367476509,11694.3404217327,10597.6790015195,14431.7914678352,15759.5453004133,15069.7364010402,12384.6820451976,12143.0469701129,14331.1625186134,12115.4186512593,11080.5125997864,12281.2672998568,2357.06808397723,2329.06360162794,2373.65118159744,15243.9471267719,15970.2562550226,14886.1726396793,10435.4521484073,10491.7792507912,9693.66281200175,11900.3012305107,11543.0016777529,10744.6801828384,46.6176973948814,213.116467593133,190.133639019025,12261.765560455,12519.5692513037,12964.2579662301,11971.6140065492,11523.1456030327,11472.7550326104,13034.9191438625,13322.150175803,12542.2935723496,3.684718371499,-8.79601555721729,0.44786787877274,11409.4097342772,12346.0093234814,11884.3737246674,10687.6564319871,10193.9726219701,10867.5933071008,12105.7586249529,12449.6450955965,12488.5516206389
,29,19297.1193584931,17463.9504409273,20927.7189901135,10526.2654401983,10595.0442797693,10520.0191598746,11315.3815029658,10761.2791066976,10615.9446970985,12337.054464093,12024.0975942037,10966.5636476423,18620.9571584491,19061.5460317465,19052.0485760208,9763.30049806361,9965.41853240159,11104.8788034449,13259.5974213934,12640.109808721,13451.2238767473,8778.60917777442,8670.02182747335,9011.85146889923,18393.5809909724,20528.9354070745,19149.6846174611,9895.39792148278,12224.9002805552,11443.4541370022,8563.19593997589,9393.91787486108,9299.42360364761,9793.97762001971,11425.0780761766,11138.6860052329,15778.1670809677,17364.4303760048,17513.4935916515,7117.45724330138,8601.06965981134,8690.03372303413,9554.69497227521,9790.23432409045,10010.615541766,7142.10326435703,7085.28672239544,7132.35164524365,11217.4869702069,14127.311089915,13339.5207976292,14547.2627115253,15892.6272056096,15171.7990393212,12481.6387139532,12236.9268138855,14427.6535886246,12276.4440332941,11222.6060330319,12450.6760111063,3936.06408609512,3882.86405771508,3976.23264332069,15396.335961429,16291.3624338105,15032.9915362528,10689.7366717555,10729.7437171581,9911.90674648524,12038.7768419746,11669.8010075022,10882.7089184779,112.603189175321,393.296793648767,365.240075337661,12485.6990614915,12720.0692477849,13160.9337175638,12126.869199155,11663.5492350703,11633.0841984401,13205.8685936189,13482.6061130224,12711.4651983525,57.2714426187295,-6.60164734774571,6.21470655614667,11560.8859737121,12479.7878301062,11984.4071972699,10842.6168462632,10319.9251103848,10993.8517256014,12295.3835585095,12681.8562034982,12695.4246405484
,30,19349.1995058015,17499.8178746523,20938.0611378096,10753.5966145248,10842.1355253291,10753.6704439451,11528.9159110402,10971.0858005381,10801.6504000782,12597.500064763,12263.8019376421,11200.5817271132,18679.2842766369,19098.5136004467,19071.7199334836,9968.48336628094,10166.7960211019,11379.1808322955,13456.7639961195,12856.0977337861,13695.3566784806,10840.0002434833,10568.6465603175,10926.1803293115,18588.5158201111,20684.5659140185,19283.4906020047,10032.6941814553,12518.1568085398,11655.561003707,10906.9388916344,11425.5701180187,11331.7827723714,9921.20798076537,11531.8537373412,11255.9465122647,16085.8140655347,17797.1596087564,17889.9968501254,9592.42889385508,10495.1320306834,10535.526914653,9614.90159865986,9818.13198795352,10050.082535269,7214.23311656299,7161.83320193746,7214.47939579595,13219.1445509867,15920.6815499657,15525.2009932587,14624.9954774709,15972.496749891,15239.0974874066,12557.7909096527,12290.5784212818,14498.6250871445,12398.3958630306,11326.5206778062,12563.4393452366,6211.95449894149,6069.19259267384,6279.61577119098,15500.7094410123,16527.1425375586,15136.4618040848,10874.855867348,10910.3330325088,10074.5201795869,12140.1774806308,11763.7154293449,10969.0236960615,217.125980071327,699.568451028626,663.444778708959,12648.6160317805,12871.128279063,13315.3257563408,12255.297811264,11769.1232059094,11743.1629056102,13333.433066414,13601.8142786885,12832.1670490116,90.3634079343838,5.00760451139831,21.1501088835212,11698.0526348131,12587.3361476343,12058.1079655962,10956.5940182811,10417.4426089165,11089.8277904866,12448.5193528761,12860.509032528,12864.1364912691
,31,19388.745460895,17517.6918054312,20955.2463992998,10891.798574625,10995.4592574009,10902.8768905992,11677.0006948307,11113.4258738712,10919.2335179956,12771.3242609062,12435.9916586279,11358.1090966349,18721.2680390844,19117.8279584458,19080.6865853438,10115.158359746,10306.3649459995,11559.1030937211,13604.7787388641,13005.4417949898,13871.1545927162,12344.3013279025,11918.1837840091,12288.2003727144,18729.739625913,20786.7025363333,19382.4148576308,10108.8852615294,12683.6989837617,11775.0170150425,12653.0164142659,12765.421799661,12662.7950453117,10014.1930369746,11608.6366819778,11343.5868620494,16302.9186214661,18097.4607217195,18150.0077711569,11583.6297739651,11724.6480288831,11705.1726947086,9650.60914517629,9830.40935798621,10076.2744099797,7248.81264938195,7222.07849288269,7267.41985993307,14688.9519258294,17116.5708766578,17054.4120517048,14663.4412431439,16023.7661001732,15275.6888605681,12608.4802361662,12320.239795288,14540.3877726285,12464.5031054847,11395.592976558,12631.4856566087,9114.15462563354,8843.08083563317,9277.21641627956,15558.7096708061,16625.5573357628,15207.3091524529,11004.5345575033,11037.0267363616,10175.0928193106,12211.4177554764,11816.2905850104,11045.2532989456,390.657182799478,1242.24173665656,1166.63624817671,12765.9458671591,12988.0131316826,13406.9697924648,12345.445832936,11840.4717482012,11919.928562554,13412.1963835012,13677.6108312136,12919.9839397159,155.38848723813,25.7515824113516,53.7428733140796,11773.5330734589,12653.97196305,12109.4026320443,11019.9419049731,10472.7098094408,11143.670388593,12549.3650317863,12988.2525116736,12988.718226565
,32,19426.3494688362,17511.2367908127,20945.6989030029,10977.4984274398,11092.6407174439,11001.6032831851,11792.9069029412,11224.2580284101,11020.4886843524,12885.3484267129,12563.7007741374,11468.0366726943,18743.1211711489,19125.9967570719,19082.2672455996,10229.7383788385,10411.9562315444,11695.1134718565,13705.0189410105,13113.996271873,13991.5834762629,13298.6449893918,12798.7556663139,13168.8748633051,18838.7773715242,20866.5065786951,19444.4447194933,10161.0381841604,12780.3921656235,11852.1006097837,13743.6476564194,13550.4525814414,13440.1149330448,10078.9962770947,11659.3446720809,11394.0767468094,16480.3262711011,18326.1228470775,18346.9918555228,12860.5896165243,12406.0723498291,12309.2606184222,9678.86935676245,9821.24087872706,10085.0371509296,7268.09485932717,7233.22893938324,7305.3865018611,15706.9885443979,17912.4885701091,18092.2159509324,14681.4446614471,16042.7801010766,15293.5432989401,12658.6485073222,12320.3265297607,14569.9058445192,12503.0371895289,11440.803684028,12683.377287127,11799.6084030476,11413.8126842396,12092.734390434,15594.0246736156,16677.2580373109,15257.5950678674,11081.0000869395,11129.9229881019,10256.0206187815,12270.0589607465,11858.9938115907,11103.9773028458,696.305376749668,2131.48259291241,2010.82771376723,12848.5619568818,13070.5549741493,13485.8526679344,12424.4368455435,11900.2303842315,12144.3986770396,13477.3123859333,13741.4835624937,12980.434714763,277.666254342401,63.6009427474783,100.454478023355,11843.2748815262,12715.2154802091,12155.4819008567,11071.2442877968,10504.9830691115,11180.9641416624,12621.6291440248,13066.4630998718,13061.9918260179
,33,19453.125729837,17521.1108951291,20956.4509863494,11039.4115562548,11171.4013904842,11062.6334639217,11881.6188102653,11297.2028159802,11079.5714888526,12957.520283715,12646.8375992499,11539.2082853719,18748.5934216667,19124.3693326476,19075.3726869458,10306.3943487691,10482.4607409627,11779.8547962405,13788.362389745,13200.0355131693,14068.194308728,13841.3595958591,13306.3279107685,13687.1012531372,18919.606362409,20923.6702426647,19487.674396661,10190.7382154967,12831.1916618504,11889.0256471297,14372.2546749508,14003.7108180415,13876.3309271289,10120.0859057491,11699.5474247198,11439.8509747722,16590.734802526,18483.4184048642,18494.2291827156,13522.8577696289,12754.9287085815,12605.0623330059,9685.12671536678,9806.5436614369,10078.6816803617,7259.75153379684,7244.74147099487,7336.12012882985,16382.1272006347,18442.1806935999,18783.3519372498,14696.938048436,16058.9665306278,15301.4098646201,12685.2671457806,12320.444842172,14575.0231850775,12522.6640064994,11457.7547498348,12706.3187397411,14053.8003717833,13570.9145357586,14486.4689226858,15617.0337260947,16714.9372720051,15285.9489963333,11113.719240178,11178.9026002868,10299.1862588625,12293.6164474083,11866.7712221628,11139.8149747384,1186.79801198242,3532.62912095547,3368.4471855312,12910.2822487298,13127.2990792899,13527.6609434847,12478.0090338741,11949.8442467243,12341.244239147,13517.2999082103,13776.9159587867,13042.8796275288,477.230906093454,123.186042116451,187.517914714447,11885.6092104251,12750.2438327203,12182.2063324262,11090.186915683,10513.8165717966,11196.477684659,12674.8267745188,13104.5867277799,13105.096234419
,34,19474.7873623568,17528.9544920936,20953.2981110572,11071.1894486658,11211.1371184587,11095.9077817122,11918.4247579786,11353.3684079819,11122.1320700241,13022.9628005216,12699.3550813107,11594.2911672992,18731.8400869355,19113.7874473515,19060.654880043,10360.8111927321,10530.2422210696,11848.4758939581,13839.3120772398,13262.1371822994,14125.0240568104,14189.5843479028,13660.0995091495,14039.0209386507,18981.1652188229,20965.9452408379,19519.6517811555,10202.1312935132,12854.0136689006,11911.6071003281,14763.6645957526,14327.5935991107,14189.3919837539,10135.6180492056,11716.8641797545,11458.1039944652,16683.8314886184,18604.6941499164,18601.4216391416,13842.3822282125,12978.1008600453,12784.0072348728,9686.06763180847,9784.03721812919,10057.2022194257,7249.35732442816,7252.33765316465,7347.57611318551,16856.3730274334,18804.6512106731,19262.4211281745,14699.1962524089,16048.8188731853,15311.0025740398,12691.348695187,12318.1282517277,14565.1788409456,12529.4724041258,11452.2343048713,12717.6209063532,15708.5760311397,15161.1035751397,16259.4489117531,15620.9287572503,16728.8862546595,15310.1080947146,11120.5937211163,11217.2961758376,10325.2269087471,12304.3945104553,11870.1311257927,11168.9115832098,2044.08062956447,5691.52482905565,5452.24396545452,12947.7223647423,13151.8858107139,13563.4586304886,12526.6657536108,11988.1143107673,12434.9550013003,13554.0912305264,13805.3161539874,13065.4342958103,831.332442826917,235.991219798669,338.072578515628,11924.6243309316,12781.4608397991,12203.1160065849,11110.2274267746,10510.6116979403,11189.2390963911,12704.8437215693,13131.602719155,13120.2299468373
,35,19480.9223074856,17543.1444407061,20952.865055074,11101.2229610185,11248.8130860441,11123.3047034982,11956.1334778508,11392.5321930457,11157.9416746496,13067.9204126673,12740.8133765487,11630.3550267394,18745.2396720199,19105.7618469448,19042.5268960682,10402.8475732312,10566.9746256045,11895.8228648277,13890.0182607522,13302.4828309957,14168.77697477,14459.574312064,13925.7955970006,14297.2139996966,19033.4183026387,20994.1212120958,19542.5914279216,10207.6288105397,12867.6195435268,11933.2400630577,15063.9077496496,14584.2268951304,14442.1499840228,10144.9208855235,11720.4133647516,11477.5020481475,16739.7623426884,18694.3415428519,18682.8677130728,14048.3636323598,13143.7801946826,12937.9311868731,9683.42859836785,9761.8746090477,10023.0061571437,7235.46968845678,7273.90110492444,7362.23711581185,17187.143107083,19062.208945935,19599.9414738754,14691.1574649828,16042.3194233388,15306.8724325673,12679.6126919678,12322.4745710331,14550.1324183679,12540.8904594305,11454.6691028908,12724.3998551925,16846.8387822856,16259.5940662329,17480.5512085934,15628.4452895562,16731.6141601984,15318.324742035,11128.0683806292,11238.2301877535,10332.9017347554,12312.3564804735,11868.2095328608,11174.419302566,3362.26604926795,8413.88727237872,8246.41857774851,12981.2299525799,13175.6397738084,13592.0042322041,12560.6716556824,12017.36719172,12477.1196544795,13568.3615205494,13819.2984825112,13085.3780283041,1402.88964414118,438.577934698363,589.225924632092,11939.8059468003,12797.6050358313,12233.4885142779,11118.6608267863,10506.3569483062,11184.0574093664,12722.1575064212,13148.4976937013,13145.0286825468
,36,19490.8764852535,17528.2525551955,20967.558038811,11102.0776985862,11265.4512787928,11128.489040798,11972.8574557848,11413.569645602,11183.4372425402,13093.3275372223,12757.7376024515,11647.9939675552,18743.466721884,19090.8995049817,19007.2651644493,10423.1301180146,10591.1008069376,11930.6312592374,13909.9922783943,13331.9775422602,14187.7724685235,14651.4917094661,14133.1734823669,14480.158337693,19066.2165548212,21023.0643203309,19554.578980466,10202.1257642943,12872.9567448512,11933.4739236116,15266.0262933582,14758.8158846072,14623.5359068771,10147.5398019591,11710.7852283131,11466.8215072381,16795.7622263183,18766.2183177744,18746.934364532,14164.8566939128,13248.6704653494,13033.5870593224,9674.26020472729,9726.36130799718,10005.4617301375,7222.52927111577,7281.09457492785,7383.89865562633,17430.2023380138,19245.3818536425,19842.0437507547,14669.0634714019,16022.6733283056,15291.140026349,12673.9452286821,12309.0034789099,14525.68932962,12529.6933490561,11455.2112314548,12718.994348946,17599.3100011933,17009.0695425601,18286.4232033262,15613.1673534023,16720.9097982794,15319.4644691063,11122.3005980998,11258.1808569359,10335.5580991745,12300.4984810972,11867.7372593201,11174.3816806701,5420.67915323616,10997.262125816,10965.0417124601,13008.6697675351,13191.6910719716,13608.7637518075,12586.6784540669,12041.8185473298,12492.3821970855,13578.3723154528,13819.2697410122,13084.9421113572,2400.57559788086,793.353577242579,1047.27096966421,11935.2139696948,12812.1670042685,12242.5392501657,11107.5638303248,10480.423172092,11158.1233135571,12715.9556263801,13154.1099182487,13146.2855243164
,37,19490.7469215067,17536.2111552931,20969.7162187302,11104.1765136195,11284.0853789865,11128.1366502144,11988.0039497016,11422.6290625024,11202.3949297377,13106.4436359905,12761.7241872504,11649.408739488,18730.8343803987,19066.2971071236,18966.2239985033,10428.8891738428,10606.2662698697,11939.3000144193,13923.1740039728,13348.0241600825,14205.5216321047,14808.2664810653,14279.9839374335,14632.4997850687,19092.2101586705,21030.3392459943,19560.6885409106,10199.6246071239,12884.74481694,11932.3108016507,15403.8964432988,14889.6230255583,14751.0597037634,10143.3135710987,11715.8873919211,11456.2463608899,16831.3639543688,18816.7163578572,18794.5106763346,14247.633011795,13315.457786154,13106.1434398887,9660.4887894589,9689.00088888793,9976.24608326169,7185.23425785225,7274.35296292971,7394.46233317288,17605.725343582,19387.0928255631,20015.4906447467,14648.9440625063,15994.490430048,15253.0247512976,12660.5344780863,12279.4489214604,14502.9190698817,12524.2134323129,11455.8547085321,12719.7135586306,18120.5093037453,17536.7407175469,18841.4410559504,15601.3220102957,16708.9695025898,15307.2757197283,11112.1221172315,11270.4553498114,10328.0034024054,12285.5426735653,11853.0670156646,11163.3512839472,8106.25125607632,13211.8066059736,13380.7300511234,13026.5033596188,13214.6419315822,13628.4828403065,12591.4213506757,12051.5111588663,12499.4672450211,13572.5952446981,13816.8959497379,13079.8334184661,3968.39086188037,1407.16570167052,1791.17501355178,11942.5230544931,12831.0212410695,12248.7836981619,11077.4160342517,10446.9388943088,11139.6224406067,12716.5279663786,13145.6816340392,13155.1086562774
,38,19503.3694673202,17524.8791968848,20965.4025740559,11101.5749355072,11293.4104383945,11125.4762718737,11994.1463714765,11427.8411595616,11192.1313575375,13116.344749584,12754.2577930354,11645.8920980951,18709.0159671495,19043.0315346303,18928.2577725179,10426.2951634256,10611.857003315,11944.3193035191,13924.5410569523,13362.1989905387,14223.338087171,14916.9854640762,14391.2676520939,14739.684927046,19114.9578625453,21038.7873109008,19567.8770572764,10190.6979408147,12877.5317783553,11911.9396768268,15482.6648236262,14974.9557398541,14830.3224454022,10135.2365680429,11718.4471490515,11427.3288933774,16859.9453982007,18856.5517760297,18835.984358104,14282.3430696943,13346.796692577,13137.5209471945,9640.17124513076,9635.82870768773,9955.11362632045,7140.17682912359,7263.56868920981,7383.99326051645,17741.2472289864,19484.466595442,20147.3682546845,14624.1903443632,15965.9556852115,15236.6607809733,12648.186127759,12238.1261282612,14465.7581503562,12511.6311281943,11444.50522786,12702.677026619,18473.3664441851,17908.5692993335,19216.9769320913,15581.4453418398,16685.3375044439,15297.6608597241,11086.3339775189,11271.2996746979,10320.6332737493,12249.5819952885,11827.3317283929,11150.9564523446,10717.8481090093,14822.3527650308,15196.9920545333,13032.7293602766,13218.4765657073,13625.5804355454,12587.9926268957,12047.5558696098,12492.2207042026,13561.0092682825,13805.6152318411,13071.2022012131,6258.72355362682,2431.53794375339,3007.20557481384,11950.3167354061,12833.7642819656,12237.2088654692,11046.9901739063,10432.3371663968,11099.5666916499,12702.0804202914,13130.293991507,13143.5048083687
,39,19491.05834406,17520.5324115294,20927.8005021364,11100.0882248469,11294.835122781,11117.7722476147,11973.487752415,11427.4107289553,11180.1352391666,13108.1164945766,12740.2796742128,11636.819682778,18686.1040664436,19024.3188454656,18887.3819706516,10433.397270952,10613.8216067665,11929.3117769071,13913.2583429212,13356.2629227008,14232.9006396902,15008.6626897515,14479.561001663,14823.3435808969,19123.4265557356,21028.447635159,19571.2630663193,10171.5840163363,12859.4001094021,11907.9910267346,15537.8945576502,15034.9475356636,14873.6075362513,10113.883262812,11700.6432174224,11408.8977868943,16894.4086057393,18886.8185964439,18860.0913614715,14305.3162059143,13364.2263873857,13150.8939161688,9618.65414777183,9592.60882230688,9925.27484482252,7107.50352325417,7250.73242658453,7384.07047125785,17854.1786252813,19558.022729192,20243.5050606323,14590.8762435903,15930.1923198654,15202.5372985308,12621.4621839732,12203.0530405217,14425.797787217,12497.6451280781,11428.1655546679,12699.1451755559,18737.9131650701,18168.0352870875,19484.4399089132,15562.5722660511,16662.7463714328,15271.9887701819,11055.8498967756,11269.5931340293,10297.4027419452,12221.7748844685,11796.371836463,11145.1292144255,13025.769334951,15904.4293587052,16450.1138672239,13027.1474914984,13229.4832619689,13625.4763728948,12578.6657534225,12032.8486904512,12485.8767662597,13534.5546928067,13790.353011931,13047.4499199357,9081.17263939282,4035.14750877808,4795.44699246678,11947.9154535162,12828.0168502375,12230.2824357629,11027.0617585088,10406.0852160825,11057.0149387917,12687.7095175268,13114.8655862941,13142.8670383233
,40,19461.8233977181,17498.5211108565,20903.0629355808,11087.5924092499,11294.3925758232,11103.9968221344,11933.5821604306,11406.9008842191,11167.0229414679,13081.2076754473,12724.0727617049,11629.2163654407,18655.1806854162,19012.6209118489,18836.5010339535,10439.262799302,10615.1463531388,11900.8230894994,13881.7676715785,13348.9132984347,14222.6683040105,15072.8628051516,14561.4853606315,14878.0708896176,19114.8086301759,21020.4015996355,19572.7375460138,10142.3950780554,12832.8623677404,11912.2517979309,15596.7491312757,15076.0243860931,14906.1384079416,10089.1295348874,11656.6977948696,11377.690743621,16939.724920121,18908.9904085891,18882.0220993273,14312.7941248007,13385.1976973812,13153.7373152732,9600.07319799561,9548.76877340424,9902.35601985271,7094.34745231889,7244.00371128697,7410.91144699792,17949.6555497796,19619.5248793264,20330.3817940703,14551.1302792076,15896.946033739,15159.3325792151,12602.0399184218,12172.5575079611,14383.4555081039,12472.563285275,11411.7326999538,12696.5535426989,18950.2846181488,18366.7158221636,19675.2888698541,15535.692277056,16636.1595206413,15241.7703914607,11012.51260577,11265.2241867805,10274.7241244921,12183.832607911,11765.5090541029,11128.5134585124,14966.5063954501,16687.8791703906,17367.4788076612,13026.5050351117,13239.1828202908,13609.9665315042,12574.4983930996,12025.5062148012,12475.1427241796,13498.9982239047,13759.499465853,13031.588552153,11887.1494067819,6214.02018556095,7061.45084328352,11929.2454681251,12810.1283984886,12216.5605677104,11016.4608883599,10368.4485517903,11007.3664083186,12665.1282303849,13095.1349294325,13141.122960697
