,Temperature,A1,A2,A3,A4,A5,A6,A7,A8,A9,A10,A11,A12,B1,B2,B3,B4,B5,B6,B7,B8,B9,B10,B11,B12,C1,C2,C3,C4,C5,C6,C7,C8,C9,C10,C11,C12,D1,D2,D3,D4,D5,D6,D7,D8,D9,D10,D11,D12,E1,E2,E3,E4,E5,E6,E7,E8,E9,E10,E11,E12,F1,F2,F3,F4,F5,F6,F7,F8,F9,F10,F11,F12,G1,G2,G3,G4,G5,G6,G7,G8,G9,G10,G11,G12,H1,H2,H3,H4,H5,H6,H7,H8,H9,H10,H11,H12
,65,55.8411121743388,89.3467260868842,93.8993005955062,-12.2320655492044,10.343891545499,-4.42654782743284,-32.0463570454835,-18.7661125432701,-2.25191548766679,-21.6934514274644,-42.5226281912901,-16.6858804088865,67.5789206310005,92.483936656934,30.0546345309431,-45.3125662995189,-13.1921948881109,-24.573753048036,-25.9658775165685,-40.4075045365162,-30.5467950501334,-4.83600287874378,-3.05335240688646,-20.8248088867272,53.4337330142607,97.4598308379482,20.5708182244216,-28.0095228240043,-32.2937670259203,-36.5849454214049,-7.28760429168142,12.7217199987281,30.050996259472,70.3435764283986,58.6410249221904,-3.51718028276218,110.588271790178,93.7688226274504,106.053610825741,-4.30411175927384,59.2816535218594,56.5880488216649,-19.8414230073304,22.4203271960027,37.7206622417434,26.3767800012424,57.8618202450543,22.3823448979065,95.9654675858105,111.083739136659,107.357816548342,5.76787759552963,7.19576479944271,6.29922598077746,-34.3108703050743,17.227303492954,23.9797151845087,-51.7705128960024,-30.6221897301421,-53.9667391210355,102.411506472194,110.149893791555,110.401992387974,-3.24903135459681,20.3196009073577,0.247556428349981,-33.9669220211099,-9.58704627422594,3.33138857627728,-39.6140792705355,-22.3131070605823,-20.2316548387621,107.547760151178,108.929296421655,125.976341215625,-21.4645535296318,-39.1382566218426,-39.2476786792763,-38.9321842157528,-45.4956258227248,-46.6759574175544,-53.7121877922496,-46.5785478439229,-54.1031066427372,143.074805014888,145.661962271871,145.664268590644,-43.9703021665687,-35.1202314487396,-56.070356640666,-26.7918478637985,-27.6526518454666,-13.6053685493862,-2.50888931397003,-13.9366073390197,-38.5566085640062
,65.5,120.989076377733,193.584573188245,203.448484623597,-26.5028086899424,22.4117650152457,-9.59085362610449,-69.4337735985482,-40.6599105104201,-4.8791502232807,-47.0024780928406,-92.1323610811296,-36.1527408859224,146.420994700501,200.381862756692,65.1183748170401,-98.1772269822932,-28.5830889242402,-53.2431316040806,-56.259401285899,-87.5495931624528,-66.1847226086234,-10.4780062372824,-6.61559688158468,-45.1204192545729,115.773088197568,211.162966815553,44.5701061529171,-60.6872994520104,-69.9698285561585,-79.2673817463747,-15.7898092986388,27.5637266639083,65.1104918955184,152.411082261527,127.055553998079,-7.62055727932284,239.607922212057,203.165782359477,229.782823455772,-9.32557547843089,128.443582630695,122.607439113607,-42.9897498492201,48.5773755913383,81.72810152378,57.1496900026909,125.367277197619,48.4950806121296,207.925179769258,240.681434796094,232.608602521414,12.4970681236459,15.5908237321264,13.6483229583496,-74.3402189943272,37.3258242347383,51.9560495664355,-112.169444608004,-66.3480777486443,-116.927934762241,221.891597356422,238.658103215037,239.204316840605,-7.03956793495718,44.0258019659395,0.536372261423367,-73.5949977124001,-20.7719335941583,7.2180085819341,-85.8305050861582,-48.3450652979272,-43.8352521506554,233.02014699422,236.013475580251,272.948739300515,-46.506532647536,-84.7995560139902,-85.0366371384262,-84.3530658007962,-98.5738559492397,-101.131241071363,-116.376406883207,-100.920186995165,-117.223397725931,309.995410865594,315.600918255713,315.605915279732,-95.268988027567,-76.0938348056061,-121.485772721443,-58.0490037048967,-59.9140789985136,-29.4782985236711,-5.43592684693931,-30.1959825678755,-83.5393185553462
,66,111.682224348676,178.693452173761,187.798601191009,-24.4641310984084,20.6877830909962,-8.8530956548625,-64.0927140909712,-37.5322250865415,-4.50383097533995,-43.3869028549298,-85.0452563825811,-33.3717608177744,135.157841262,184.96787331387,60.1092690618798,-90.6251325990402,-26.3843897762185,-49.1475060960747,-51.9317550331411,-80.8150090730333,-61.093590100264,-9.6720057574953,-6.10670481376656,-41.649617773448,106.867466028528,194.919661675892,41.14163644885,-56.0190456480132,-64.5875340518423,-73.1698908428039,-14.5752085833587,25.4434399974539,60.1019925189366,140.68715285679,117.282049844384,-7.03436056552891,221.17654358036,187.537645254902,212.107221651478,-8.60822351855541,118.563307043718,113.176097643329,-39.6828460146648,44.8406543920082,75.4413244834896,52.7535600024876,115.72364049011,44.764689795812,191.930935171626,222.167478273318,214.71563309669,11.5357551910579,14.3915295988827,12.5984519615536,-68.6217406101514,34.4546069859157,47.9594303690174,-103.541025792,-61.2443794602909,-107.933478242068,204.82301294439,220.299787583114,220.80398477594,-6.49806270919134,40.6392018147167,0.495112856698597,-67.9338440422121,-19.1740925484537,6.66277715255137,-79.2281585410692,-44.6262141211637,-40.4633096775315,215.095520302353,217.858592843309,251.952682431244,-42.9291070592676,-78.2765132436798,-78.4953573585476,-77.8643684315043,-90.9912516454519,-93.3519148351043,-107.424375584503,-93.1570956878413,-108.206213285478,286.149610029783,291.323924543727,291.328537181298,-87.9406043331387,-70.2404628974859,-112.140713281332,-53.5836957275969,-55.3053036909355,-27.2107370987696,-5.01777862794779,-27.8732146780389,-77.1132171280119
,66.5,111.682224348615,178.693452173768,187.798601191017,-24.4641310984398,20.6877830909816,-8.85309565485341,-64.0927140909967,-37.5322250864933,-4.50383097535905,-43.3869028549448,-85.0452563826311,-33.3717608177985,135.157841261971,184.967873313905,60.1092690618716,-90.6251325990343,-26.3843897762104,-49.147506096057,-51.931755033118,-80.8150090730437,-61.0935901002572,-9.67200575747074,-6.10670481375746,-41.6496177734953,106.867466028572,194.91966167587,41.1416364488168,-56.0190456480627,-64.5875340518282,-73.1698908428343,-14.5752085833205,25.4434399974216,60.1019925188762,140.687152856785,117.282049844373,-7.03436056555483,221.176543580335,187.537645254915,212.107221651535,-8.60822351854085,118.563307043723,113.176097643299,-39.6828460146626,44.8406543920109,75.4413244835173,52.7535600024712,115.723640490102,44.7646897958571,191.930935171626,222.167478273314,214.715633096688,11.5357551910706,14.3915295989341,12.5984519615404,-68.6217406101896,34.454606985948,47.9594303690519,-103.54102579204,-61.2443794602582,-107.933478242067,204.823012944443,220.299787583073,220.803984775922,-6.49806270914041,40.639201814713,0.495112856675405,-67.9338440422011,-19.1740925484792,6.66277715251317,-79.2281585410597,-44.6262141211805,-40.4633096775042,215.095520302343,217.858592843353,251.952682431274,-42.929107059324,-78.2765132437389,-78.495357358514,-77.8643684315452,-90.9912516454801,-93.3519148350929,-107.424375584483,-93.1570956878368,-108.206213285539,286.149610029762,291.323924543741,291.328537181268,-87.9406043331469,-70.24046289748,-112.140713281294,-53.5836957275915,-55.30530369092,-27.2107370987715,-5.01777862788595,-27.8732146780085,-77.1132171279505
,67,111.682224349093,178.693452173735,187.79860119095,-24.4641310981724,20.6877830910726,-8.85309565492116,-64.0927140907847,-37.5322250868826,-4.50383097517806,-43.3869028548374,-85.0452563822309,-33.3717608176185,135.157841262204,184.967873313625,60.1092690619748,-90.6251325990515,-26.3843897762804,-49.1475060961657,-51.9317550332958,-80.8150090729632,-61.0935901003327,-9.67200575764264,-6.10670481388433,-41.6496177731583,106.867466028194,194.919661676052,41.141636449061,-56.019045647658,-64.5875340519206,-73.1698908426315,-14.5752085836593,25.4434399977222,60.1019925193846,140.687152856857,117.282049844456,-7.03436056531791,221.176543580515,187.537645254822,212.107221651088,-8.60822351863226,118.563307043683,113.176097643539,-39.6828460146635,44.8406543919778,75.441324483249,52.7535600026072,115.723640490184,44.7646897954842,191.930935171585,222.167478273343,214.715633096695,11.5357551909688,14.3915295985435,12.5984519616331,-68.621740609889,34.4546069856683,47.9594303687882,-103.541025791716,-61.2443794604824,-107.933478242104,204.82301294403,220.299787583393,220.80398477609,-6.49806270958106,40.639201814759,0.495112856848209,-67.9338440423262,-19.1740925482918,6.66277715281376,-79.228158541107,-44.6262141210459,-40.4633096776975,215.095520302434,217.858592842991,251.952682431023,-42.9291070588647,-78.276513243291,-78.4953573587718,-77.8643684312178,-90.9912516452118,-93.3519148351975,-107.424375584635,-93.1570956878718,-108.20621328506,286.149610029892,291.323924543664,291.328537181471,-87.9406043330778,-70.240462897506,-112.140713281599,-53.5836957276224,-55.3053036910137,-27.2107370987646,-5.0177786283557,-27.8732146782522,-77.1132171284289
,67.5,111.375348799164,179.493929798667,188.386409839499,-25.3867585197913,19.7222252314914,-9.16596744770004,-64.7332096635532,-38.9348773256297,-5.37187339881348,-43.5128934338481,-86.0475567395893,-36.581586657971,134.925994049412,186.477863765255,62.4167813717249,-90.6786913952756,-27.766277655162,-50.2289018713327,-52.3349416654014,-82.7426889503163,-62.1792766863441,-11.5648701728196,-8.66376948388415,-46.6413024779608,107.530588966564,195.709490746169,40.5803660519582,-56.3025242775152,-65.1025302605312,-73.859250911773,-16.7989355415712,22.9928488402279,58.9393260671836,140.695071183412,117.416517557436,-7.83808087476655,221.37918076453,188.070760878478,212.952599792174,-10.0008884183726,116.769603818141,110.830161185644,-38.2748387790693,44.6734177572043,74.6620602136195,52.4404005888068,115.74217293713,44.9007594959157,192.637678536215,222.741040753564,215.755393839883,10.6397765721745,14.295182620896,11.6933768389754,-67.5395862767959,33.0962076105884,46.8334544927984,-105.070356652838,-61.9697158207123,-110.066875165783,205.267687899815,221.232329908158,221.429784562247,-8.21991061656081,39.5868842106411,-0.293175116517432,-69.7457035605421,-20.0684233133984,5.33215189460634,-79.9697956436362,-45.2496108364371,-42.1717194853672,213.912349150016,218.539016491081,251.95712061999,-44.5953968984741,-79.6956561007655,-80.545378517214,-79.4203935596101,-92.9574610364125,-94.9142469396024,-108.87197388987,-94.0958656753432,-109.997916049745,281.98454797855,284.246887100175,284.382221005463,-89.6170366196584,-71.285002360723,-114.372006391408,-54.9639665752111,-57.0302419242962,-28.1675787165827,-5.60341209482294,-27.8209390620123,-78.3768281515681
,68,112.673009769052,174.361056736808,184.994871878167,-19.284233841126,25.5907629448429,-6.56472160322619,-61.4927272748209,-29.560737099278,0.762049702379954,-42.5883778630027,-79.4618656142252,-17.088741023791,135.289746262576,176.564321709326,47.5888263110774,-89.9257811723487,-19.0048489337264,-44.1857896030147,-50.2123624774117,-70.5609582575103,-56.0216838361221,-0.861448221813134,6.84995756792432,-16.8064541164745,102.368361476015,190.04938103607,41.6268512453134,-55.1460093092987,-62.1178281293883,-70.0158977740771,-3.75502298297761,38.5452423139973,66.1214566226404,140.449886188204,116.332677202402,-4.34834005182847,219.913865380265,184.405286315591,207.658443276565,-1.5207656162861,127.664546150948,125.49453195466,-47.8592531106397,45.2277713267636,79.0439647685839,53.3989228858304,114.871365973886,42.8212034758476,187.462896735855,218.797992423328,209.233777059877,15.7108792953909,13.5837524559893,16.6506207927996,-75.4039622533187,40.4413299356202,52.2048419489302,-96.2308616061655,-58.0036452557888,-97.8760052959929,202.52416718858,215.565743620029,218.063243404939,1.42583392802317,45.9429448144738,3.91517095078598,-59.4115808882029,-15.0435902366189,13.8241605862127,-75.7564372297907,-41.224692252018,-31.4744885420123,221.433252219621,214.596026015433,251.917088494209,-34.1200368706573,-71.0272102103672,-68.1817888732749,-69.8623367375258,-80.9665597713283,-85.5196707696327,-100.753148691304,-88.8376498654079,-99.8848932798001,307.946890510891,327.680094734465,327.41577680746,-78.8733569641399,-65.0074890339652,-101.364889940866,-46.7945512979118,-46.9936756590437,-22.1657953747681,-2.78777393083965,-28.2575367590225,-71.8992113227546
,68.5,118.391903301774,165.093401932741,175.819130964761,-11.3173147053549,37.8951348830365,-6.9389831212352,-50.3178546444424,-17.525018111864,6.21767001051694,-42.7456912442503,-69.7807716951525,22.7299164090268,143.464919640559,161.125301527292,18.419109457569,-90.885179174878,-4.07063101548329,-28.1726540687728,-44.1921012984881,-50.7249274850883,-41.2375585361019,26.7794091330452,38.0447087831185,48.2722636467283,99.486152118157,184.285618421653,62.4645266383159,-49.266418295063,-56.3658529584386,-60.31892112997,26.0949989385745,64.271547764793,79.4960272006711,140.621414648426,115.644256552345,13.0829297577166,218.263629181678,179.331498650783,196.961661287992,15.073433746501,149.964867418902,152.584589215681,-64.2625160831217,49.3704932650344,89.897738588581,61.9261850378662,119.250690922841,47.9836063295211,182.754437444995,213.48881449744,196.268699456199,27.9896675060327,21.4240379104804,30.4596520191844,-87.4353295754559,61.9755153152423,74.3126502562254,-76.040436641118,-47.3483495821874,-67.761109994437,196.131881427404,203.456555032616,206.15017580576,26.6098992606949,57.8809132294582,15.8033524929083,-33.8338780320623,-2.36241369790196,27.3404381962014,-65.5211988618962,-35.3979103337811,-12.7146527613709,233.530749952595,204.363656650014,251.665036570157,-15.930366184743,-55.0622886082415,-42.7368321303593,-51.9329862445843,-57.5852572739282,-65.9894890835467,-79.7260017989083,-75.3715828919944,-73.1910286370071,356.210177582579,414.714963912382,410.518343039285,-61.9960400875971,-51.9436007704244,-70.3592706121153,-28.8730341875098,-23.1866204697235,-11.4985861256291,8.46997915528891,-29.1042655050787,-49.895869705721
,69,137.435558963819,164.251253008741,170.280045113001,-4.50697243284958,47.0349419665158,-13.518181679065,-30.4941880639408,-11.192427118584,5.0550890383106,-40.2039041440439,-65.7825852263777,61.3922840776077,164.197699226069,158.229585455434,32.6406367885756,-103.189639846175,6.46839407887364,-6.29402952122973,-30.6708063473502,-27.3139864320015,-15.8276939733628,62.1000237340149,71.4814463808007,112.538549044558,114.02448412069,191.346936246774,100.393845682241,-34.0120805977731,-40.888675385715,-43.3811726158679,60.2211479475873,88.1318584535393,92.243390854368,147.277788694483,120.586758582316,44.9103832466135,221.690322930713,183.236330979487,194.299574138977,33.4492382153362,171.12262027005,172.030870008917,-38.0264334692479,59.7852109113319,108.113385766328,82.8875548368928,127.698044661825,64.8870449951055,191.863581312708,217.216435113638,192.651025630803,48.6189289272688,44.3911456240126,53.1242111197439,-46.7341631858926,93.3330647480575,109.078571084864,-44.0686942239522,-28.3547904693824,-27.4912016261787,196.848912610683,193.766537691756,201.222228751448,63.0503649741795,77.8513016125253,39.2386034563756,0.956213698255851,16.9736226682353,40.4828068177526,-50.6049296365941,-30.1770190893581,5.98673710895355,246.387858305257,196.590775585934,252.156838989009,0.322032877076708,-31.3596722286261,-15.2880836369259,-31.3999477375719,-31.549734774359,-44.8195309224416,-49.3684196185231,-55.1716896383587,-42.337110828269,394.103763677485,482.989584053058,471.497506184481,-46.963633838709,-37.977506333591,-38.2165411760184,-7.78545782031188,3.70551264542564,-3.62295263852411,26.7888303082518,-24.3621072051992,-15.1431865421951
,69.5,172.190119522637,171.850208019952,175.45132827249,10.9114574698046,55.253090189683,-9.6199282934117,-5.65217574387134,3.07571778578904,14.3563696840474,-22.8117099605734,-61.9392147182848,102.999096114507,200.646711870682,169.516331115068,89.2067019841097,-110.29911122614,26.8972188817779,27.0532244567312,-3.43772120836502,12.6932090279906,26.1273521542307,110.852625602197,119.058306409439,181.418475617692,144.441081005714,214.31482372892,146.614970559837,-1.60514631384876,-5.83447995225106,-11.5099279953065,110.558376016622,124.932372593008,118.826146208593,168.181178964127,132.886535532819,90.6636661319599,231.12847218805,201.952124158731,208.764619540885,67.6019032652216,193.12149231763,193.454648027167,28.6127887655402,86.3132242401002,140.661853177474,116.962856477231,140.109973391913,96.4487142328176,216.781934107822,232.739043574143,207.629019590494,85.5551379861236,86.0927025562078,73.4005120224574,44.5659901231998,138.480974941019,160.517984828574,5.49304597051832,5.51517001875982,27.1040993443703,212.742682086537,198.65178687258,212.575702990869,114.586490423678,114.56382502955,83.6641434143603,50.5578154150062,54.4273140005657,62.1143413095742,-17.1098415678034,-8.5978582657367,34.2035713861469,266.465631105835,199.244874265608,262.29647663758,28.3492811225519,7.08602509587627,26.0418010575368,2.45465833548542,9.03665110534348,-11.2342632764298,-1.01750409222359,-16.563587279179,0.351238792111417,431.541683240047,539.790174444252,522.686140519122,-19.2121714007772,-13.3599669168216,4.37495234729522,24.7752931970963,38.6715497236883,15.2410747653657,54.763426455886,-3.03889026723027,32.472980647708
,70,216.41908807165,190.267713179598,200.004605970783,35.7181717123663,74.1540590537707,13.8062582263569,32.0168115709607,30.7909444313932,35.4684630761362,10.7673631350226,-53.0291545841974,141.30112093635,247.11523165629,200.537382037582,157.095937436731,-99.927600676564,57.392426937558,77.7336128576408,38.1852240017629,64.4141702751208,79.5050629676675,171.657488685865,181.457025429379,251.499950835126,180.190050208026,256.129564424165,210.519568608191,50.613857071236,52.1881774869034,33.7800379788641,171.720273671857,169.495610001965,159.799493084625,203.037730114122,156.95782027207,146.018486830735,247.079195410919,238.654530361492,242.281919826695,102.251818651777,219.175291545332,215.532026504256,104.280797674138,130.526749813417,186.724718145247,168.973916489332,162.183366867425,146.291532767965,251.601201764531,264.062164770476,239.816572162479,134.58745928196,145.656873552236,96.1876614729513,142.062496177655,192.189907133567,224.448051991013,68.4455018267145,55.2811334802659,89.5033842819653,245.985816780408,227.197784165994,240.922505494219,174.87106395166,163.418535675176,145.78450159921,113.640612552512,109.739401046634,96.7936251712508,36.0044436412022,38.63199959842,69.0858986510671,295.695099388892,216.147815012556,288.761769385913,71.4663480103586,57.2931931252083,81.068802004751,49.8549238661335,61.9146512288376,36.302255491596,60.6410325200477,40.417509269434,57.8864626758091,468.455236413181,581.342690573706,560.760595681318,18.7604805040392,22.1684309500729,57.1104412927284,71.3267108033901,86.4297071120845,49.7125189177623,94.7715466461013,36.5883448206073,91.5518557291448
,70.5,269.492048611606,218.253976036902,240.860676660854,72.5776290924941,105.58972589325,53.956389111243,89.7603216585426,70.7480652775475,70.5496189608507,61.8342363335842,-27.609655151633,179.909954796452,298.32383530011,251.423206985945,235.677321266121,-76.5307690568075,94.1171936599767,138.082120820764,97.1323863139942,123.164919019523,141.886905924948,242.128249387526,249.855679748469,314.514656931166,216.350505771829,309.633920986902,275.449365481374,114.234760036145,122.169399365464,86.9920647611561,235.072777460947,208.400001810785,210.001928774145,249.099418538765,193.352841577015,205.403255166452,267.826375950067,286.697655311675,288.053823747324,130.482262778602,249.572487938151,238.158195207013,188.0530507851,188.064731356169,240.945365379822,231.298877955112,193.188997186715,205.234758496617,292.977172689627,307.440073263139,282.912050139711,190.549946543992,215.510012718771,130.118646551899,240.64459411087,244.206734382935,289.383404792095,138.427707774834,116.226533806063,154.675811421852,291.605587998792,270.249063344078,283.289903744693,237.4075631592,225.498646286801,213.712171641632,180.34772050204,172.766473682251,143.966733043901,98.6122340255561,97.3078713806058,111.168405802485,333.317490452577,248.309169339295,327.930308724478,125.522510740377,119.875180968758,144.534460279294,107.582711545229,121.419238709525,95.3757027992251,124.520637316511,105.457823261495,117.665087279316,501.861479694847,601.418630558471,581.438658203252,67.0262852015508,68.0775089573835,110.609845503828,125.589678656236,140.169722962038,96.5955494434675,143.633623806403,90.2861590456955,154.935764404926
,71,322.986443298417,253.194575139021,287.928503246986,120.591504555948,139.942179619882,106.435797314753,151.969665598088,120.871890131563,121.19242488344,127.433200872936,13.9984956861058,217.043226191086,347.494947189452,305.443265153099,314.857383615836,-34.974852950581,138.518286523021,195.097565006952,160.513247269582,181.584614935398,205.238822152332,311.473124704529,315.325110432241,363.625013273836,254.530459240706,362.835890783448,325.762069885301,177.00559072307,188.097026391744,125.029227845803,293.465735460803,242.09779364664,267.746000899421,299.381363766708,236.35918961585,262.478381924831,288.822560882818,334.843936469478,340.013466560215,165.348362917417,277.4090487464,265.521327566739,272.636226011597,253.152816399383,296.877636136409,289.212066381834,227.326933829329,261.384652768133,336.147760956683,353.695239433996,334.625285010247,233.54109099906,284.12810058826,165.045039377193,329.925553504353,291.798676254878,345.143544281259,205.174747179808,177.385288826065,214.457323996573,340.041816219385,318.246412287453,334.888899578461,295.334408950474,291.49080190278,277.04595241398,239.294106942579,238.942585107813,195.328847596912,164.26482549903,158.125754110764,160.075769704963,371.223424880153,291.254662726105,371.770160351,183.013434575335,185.784826237876,210.138706414741,169.042801030806,180.702421815638,156.853425339086,185.612925999053,169.515983370729,172.179527526374,525.233633141415,593.97872632374,581.33320216123,124.532524310787,123.866417698254,162.750451157927,180.030620475137,189.468739573446,151.82578014467,191.466460701834,150.9383417248,210.863026114903
,71.5,365.323360804131,289.694274981031,337.012856534937,169.36675691671,179.792343193818,166.557434060212,206.705639669886,174.45189117566,178.179296679322,189.185043293095,58.7999967494493,244.93097180562,384.958723318691,355.822685919916,374.162188196111,43.0443343907436,185.498960011486,245.88772986252,214.835151549042,229.787279757798,257.514167118482,366.623877475165,372.52835020852,398.427269667812,287.849226473424,411.897718612682,369.201901209172,233.184943716476,248.029365372469,144.764266799329,341.843963602113,274.337794629148,324.462818636279,344.60891123698,280.347887409128,307.726731013412,311.420625597053,379.232768990373,389.310275317574,199.329975146794,302.737780599005,294.840688589921,333.96864324886,312.95004602362,344.679883850131,339.140871985398,265.088707082628,311.787262302824,372.67312542921,397.39972955225,386.655069928319,255.747263508606,339.530898944684,191.879883537161,389.163666444067,326.713028067309,388.70481898692,261.243658725433,231.723970138881,262.877622513719,386.324013411553,369.32877377121,386.429542167441,343.503311527322,349.420304909228,331.093242366251,291.476485389192,301.524532514482,248.270863882643,226.563201835645,220.786328915179,206.918987844533,403.9589807276,337.046219555101,414.436487532726,238.526620111413,245.200743636955,267.117299548987,226.652743864821,235.138092731312,213.33080059694,238.706445243259,227.840707903939,218.988612454947,537.527937243937,562.137742262416,561.308225682987,180.975523052355,179.748959016037,211.845671937775,230.745946656169,236.681657894952,205.248474576367,233.556255388465,210.512728895003,255.019299535843
,72,396.444397762045,320.64323221598,380.73169450261,211.453563121181,227.176932248287,223.907529430935,259.37871146319,222.897991396897,231.024280055348,238.893322528587,124.076336409298,265.199651600014,411.182019202278,402.197992472641,412.01425066536,135.772495884832,227.32939730397,289.971086353635,261.376789300725,268.511197728763,296.85864036147,409.717277303323,415.401234422109,419.331766990752,315.426111964714,452.69261438826,409.492420261858,279.253872542766,297.611441591896,162.427867904381,379.048581203736,296.472138685064,372.549778515352,381.917299720158,326.767676401532,342.554967233556,334.06618317279,417.166800264244,427.048979594963,224.204169206123,325.547418983072,319.440727470491,372.768578222019,361.977538220528,380.112266728733,381.317035113924,302.08521585014,352.933777803895,399.991722154472,434.215357657552,428.092215283138,267.832001724499,380.442122119663,243.578190930245,419.737408939567,334.189879267347,421.330241662621,303.290248373535,275.902835724265,299.687597957367,423.183743454509,412.087497288743,428.604054940076,379.067059678938,396.160208089967,373.083452725956,335.977949985717,348.574680333771,296.978898293633,275.997044653075,271.588259810462,249.119399151305,429.242369384373,378.778552356423,449.026694199021,285.508908679656,293.312608707624,310.701886085427,274.35083622341,277.157689879992,262.116618654804,279.089744782275,276.485938161294,253.979121329615,539.669371817782,515.494491385249,526.975611700856,226.628638708628,228.398451296319,252.861118449216,271.703173433134,275.244656182479,252.277644063359,269.623778062581,260.263598954839,286.867334654061
,72.5,415.857988182469,343.383408232514,416.099228813906,248.80458174553,268.176272173711,266.574740206276,300.482385097596,263.12337381347,274.79397028913,282.047368552812,202.988679860791,280.355452212585,429.490245855896,435.097727314499,443.221409339094,213.566154228317,261.158119160194,320.68244560415,301.975157394829,298.401718613722,327.809403090188,442.156849540167,439.970120501089,430.49604147021,355.792694267785,479.241314638362,443.742419784164,312.278103932428,331.01643060048,174.741619920745,390.180413265718,316.772321717488,409.236443178852,410.103567006508,365.70203716804,366.868502300671,351.882411448785,443.01284454565,450.738610936985,272.408520464763,343.199817035852,342.24381356869,402.852243043607,399.992317813731,406.042692383092,410.512933976762,332.480609668533,379.020790220594,418.538670119468,460.008145493723,459.648270470107,271.681042185543,407.02458791522,311.856020661274,440.6420530128,326.190558730937,442.393741205884,334.532612069399,309.544115804993,325.946985340038,449.334919778864,437.765571195158,461.642683411183,402.519724504963,427.347590896537,403.007289356038,369.643519187387,379.639353356682,335.586863407701,309.574711926117,303.056024450207,283.448588662582,447.102420373119,411.863619175722,472.060172180133,321.137319632713,329.853004028221,344.30621156416,311.371596882668,306.404750150561,300.135943012314,308.258789436077,312.587517574595,274.53443793289,532.846654220711,461.883890304379,484.957463982645,261.421646065148,269.426214441046,283.736412366701,303.392556928326,299.845831663037,291.282125079414,297.815839673042,297.622371245018,305.815449819559
,73,425.039470195748,348.481157136505,440.551191501692,281.022107816382,295.71897435787,295.990305250568,326.499856241447,300.796296784012,308.396522374583,317.100383919044,267.931595642718,290.996370859649,440.197158135856,454.066562245474,464.744870652939,285.616061393413,284.500615873233,340.542008788675,330.29507852033,316.157925016353,349.461871348376,463.182560968306,453.732607941095,434.918626893999,403.305022012426,495.468259182869,467.755261292555,334.783097096579,352.125118233002,181.080528731288,381.345331606629,353.500239659681,436.227705325068,427.147620258151,392.679144554669,382.09839633327,365.249097109791,458.475676525818,464.489609579845,341.495798833181,356.875708985226,362.785837614405,419.952103921996,425.477640531501,423.05020567262,427.817285011574,358.218932890834,394.279453957542,430.293936052591,475.160886707118,485.898947987685,268.32943324625,422.551028517225,362.712705865795,452.833542764095,319.968906573242,456.571710994531,356.251085614625,332.104330065772,342.210600937571,466.563695103473,454.228834929263,484.477701804144,416.519152182761,444.242256302208,424.596202763853,395.5077896903,401.838656727944,364.800338839805,334.275878406882,326.447406929211,307.8876903931,456.188659357994,437.909275790862,485.987512579498,346.393035049569,357.575716312009,367.670296263389,340.992014956299,327.77605193612,328.121851534757,332.580236055895,336.408523336801,270.086233789884,520.955307919075,410.186098217568,442.781778422567,287.148782972031,304.288496369367,309.369045438376,330.096910873187,318.275535109064,318.495679446453,319.479728500492,324.274551312264,316.239795149141
,73.5,432.139184911055,339.025451002598,456.912220513011,307.681416898582,318.780769645316,315.722173818351,348.038032704319,331.568332667671,329.450451076596,339.269898562919,317.40075798922,299.475928084041,444.133171640782,467.267198285257,479.335030795894,340.386834455096,297.611129748094,357.725822395697,351.432470992925,332.464095699066,363.843681046713,474.946410669054,462.345344326083,439.235023487242,438.704116221972,505.621377515597,483.100832946694,350.069112074033,368.726573541151,215.52201898348,375.114572122176,397.39261426083,452.155625316243,438.52038107382,410.906596430408,390.30874871211,377.936773000672,469.528267752858,471.626472241297,395.270487685219,369.123435503361,375.989071774873,429.535861873663,441.868543415685,432.899769765762,439.506187854466,375.053092007111,402.718106666772,435.607375974299,484.969283568917,501.333534901235,290.309129737428,431.777838008938,405.625038712018,460.893705120919,310.196702805938,467.4518935438,372.993670521795,345.33958301432,353.843544135386,478.626297853082,464.305554977386,496.57910314563,425.652474619314,454.319926944929,442.942185201795,417.248200462627,413.438649968186,388.265841770396,354.55991538188,345.473028486535,326.807422119565,461.558501194863,456.701111558411,493.265966611064,363.661323874328,379.757647242698,382.597948200667,362.739297035952,344.794543207546,348.718654072903,350.587585613211,355.740509254554,247.219795346927,510.292669726082,367.984374471818,406.172711726823,308.250661443554,329.327918012204,328.58661646162,350.040191728034,336.944411951989,339.228224151711,337.413113623679,342.87491302773,323.713057778372
,74,438.401125637858,327.927102639296,470.346240749262,328.704411315808,335.269178231443,325.022258142083,363.829962804711,353.829121037726,342.01065398378,360.555410567287,358.769067511007,308.724317201408,448.418611041348,474.557155874799,489.971635543568,366.560550391093,304.551367456872,371.011346244638,372.822320957346,346.470846288825,375.733104993498,482.060396460983,467.876793665755,444.526363501318,466.368373365901,510.787132925207,493.244216677885,361.068851392089,380.041253336011,271.932622836065,369.086414130025,432.756294245407,458.961623391535,446.376946166143,420.944422047347,393.977517689112,387.113204211794,476.968890886093,474.029458421368,440.009212670019,381.393676388846,384.706162982639,435.578645053867,451.276361638421,439.604318539798,445.311850216256,384.464509885411,409.989126768734,435.515599881947,490.565911121123,506.916808957826,338.614478652066,438.024813987979,443.362520030661,465.969798157173,304.113964044561,475.414293572099,384.457759371578,355.924376877813,360.83058894193,485.962087497334,467.274976694067,501.770638238761,432.772809010845,461.039997645571,459.106639582418,431.746401198361,419.923858455445,401.203245936478,369.572708401445,355.767744942437,341.13477762916,462.951932621474,466.726396658229,496.569227234877,376.000070507353,392.698634837333,396.383973781177,377.661016440103,357.025827522037,366.565835212406,361.112699681941,371.896231141569,226.262256864771,499.692540600946,334.665706395243,376.416690177596,323.163941131362,346.541143263269,341.338704757131,361.32204125459,351.093237924775,359.098593227097,352.531639588888,356.727003634933,330.976418057546
,74.5,442.842058270215,316.488064612945,479.751182552042,347.952823029955,341.220506284382,330.95051704551,374.060818017713,373.507551860645,350.462743191721,380.549085717026,384.253004958997,322.192967347128,451.371190318512,475.676754790491,496.397491565512,377.330177709865,295.630789859364,380.0180472804,388.026397314264,355.456859908718,389.003787254223,486.459353167595,469.818935961062,448.565812019104,488.563230704975,511.793324115163,498.567105329706,370.037237593396,387.076803013604,316.472657652091,357.092527625945,464.702548994897,461.196138602618,449.968363326748,423.828368712465,394.904377224812,390.172720356983,479.612125152034,475.733758739985,479.095489537145,393.41854426798,393.529443511832,438.200838529427,457.059331556844,445.426085781731,446.983979755134,393.102600491684,416.910690119873,434.613551539183,493.164158235272,512.361972410435,381.278177537011,444.22882881252,460.430692463782,468.285149112682,328.612731202388,476.431752329192,392.2626716318,366.104821610193,362.07611665913,489.352705851037,468.733693916828,504.286734410036,437.741655630837,465.991296188429,468.291165888093,437.676055078998,426.622494099409,409.668093751376,380.255845886379,363.447467942213,352.029360607676,450.438737962627,471.528240894328,497.525708584268,385.771984861796,401.050217698757,409.783847442817,391.638516867076,366.519332883612,379.963418115528,371.170505585117,380.833941871816,207.98712783672,489.891108793276,308.096964402938,353.194403454859,332.350627470137,361.031089047592,351.314514520206,369.886610056461,360.827520816041,372.17948918791,364.266614800759,367.97285893955,337.341596181007
,75,448.362447349388,307.673728560268,481.464997866666,363.391921956401,343.121346847011,339.300482063106,383.075369400519,386.949248225321,357.989413525281,394.884775961553,397.393790791815,336.275947853242,452.649547009755,477.766857317563,498.13502884592,387.070544246018,276.485320387264,390.074848834886,397.954561323019,362.622799808928,399.232990772021,488.76961145617,470.387475122369,449.403716648991,494.203921593539,511.43151650034,496.939128703727,376.686951601316,392.811660276592,355.569288628761,374.703671046017,487.834602804257,462.976736236988,451.538887684617,423.566316334764,392.588561426602,392.149001796846,481.16305964438,478.374301852072,493.742251781536,402.395353427599,400.519022738325,438.928198044536,461.969921292199,447.547444151256,446.449375988903,399.373198537478,419.27247775063,433.114258447888,494.246397601275,515.279635314365,420.399139835758,450.286935477166,458.590513141475,467.338250589135,366.825031744136,476.960070658903,397.383155255664,372.689525546361,363.701582282322,491.132225532723,471.658506466859,503.131087157043,441.86070873288,471.501926532878,470.358043896595,440.528569545807,430.705248274749,418.153429486983,390.488494185703,374.920840907442,361.755057616644,429.999594139856,473.940119166899,499.245891171238,394.249742173472,410.027500917909,420.222960913387,404.126585732922,376.172973303738,389.729940960844,378.017532872777,388.688456298892,194.832538683728,481.754161713066,287.967338787622,336.833408425141,342.500343984104,372.046554019887,359.323457709356,378.046817007356,371.798959331367,381.183173023164,373.334466251502,377.449365761114,342.639122993251
,75.5,451.492113335769,324.910192123312,480.357547135249,372.265289771612,346.947993085998,346.473400304004,392.198242639378,393.790151168007,363.219347595253,405.738031766857,405.963775968284,345.647630674205,451.532424196775,479.871784256172,495.005266711054,391.32493384007,264.290185036131,399.517176619679,407.85442921817,370.301789516986,408.011886814018,487.432961527051,473.016947238593,451.30981109644,490.84028800817,510.688500697273,494.357243496491,382.376112131395,397.974212144565,390.197481635343,416.62887336141,495.770884427535,462.904972719207,452.674205834432,424.210564566058,388.342796282192,396.297108924781,481.846542141475,479.264878514703,491.326038010878,408.952717957425,405.022385773487,441.20782807946,465.403144597081,447.171296033471,444.207130048288,401.291842615249,423.592766876094,427.693242918465,496.143471659038,511.402567756333,457.601299122885,453.522590297488,459.86152152983,466.027382856246,395.824894435835,477.55071252727,401.24084739366,377.554149715083,365.679205942725,491.027056326976,472.557876671934,499.615833268163,446.654205908557,478.629285598651,471.896538212138,442.400783551885,437.036446426627,421.284926100645,400.246080868975,385.211606479259,371.499324582944,412.814450523379,471.964335276023,498.082136326343,401.163601515438,417.078342916268,430.472655982975,413.52289466355,384.888786780063,398.665852867947,380.411612525698,398.433416865324,220.386075753399,475.008118547554,271.9559615495,324.064237787678,352.540053888121,380.108881490027,366.495902329477,382.716122462063,380.042028281256,391.693485458678,381.745853541636,384.862628353061,348.545508675199
,76,448.887397268978,355.582183566231,480.171248549978,377.040261497516,349.666240748094,352.136301040595,399.323426546099,400.884019066347,367.881309219636,414.390168592189,410.75151317502,354.208154633773,450.115796073876,480.88585090532,491.794701435732,396.623833573599,256.379733978461,404.904750259351,416.466025268146,374.560165927214,417.635448045463,483.828848101496,471.839024370472,453.050848391793,489.288585007106,508.518782676304,492.869333485096,388.694243394557,402.761680037992,407.013686127213,446.263567531041,494.196467674099,460.840153532468,452.430717728307,423.449829055478,383.322566836615,397.205762085307,479.308159946591,477.56582890096,489.727900311951,413.585292237146,409.50063960969,444.333465346887,464.36241012822,447.254343708097,443.660429244144,405.693986589425,429.726756411072,413.280824205119,497.133679906953,507.809592169059,476.708600412666,454.631838153307,461.944272804773,467.545315942215,424.120305370413,473.671703103073,404.006097304362,384.823959529365,346.198138957569,488.071243673226,471.551950227828,495.758625328481,451.875172717037,486.176299491992,473.792844426931,444.085279119535,447.896265542777,422.329161065045,404.183842485821,392.276413634658,377.706665149443,395.183638866198,467.698617307749,493.313968419308,407.721973472547,421.171724637414,441.103551056467,421.587126111121,391.236169095873,406.621813690435,386.285427612417,404.895952399791,276.195490229565,467.626537512839,257.849960862407,313.753881078207,357.982757889257,389.305615625502,373.235294051224,386.243830466428,384.161694656838,399.618682673584,389.748248663783,391.489474852153,353.240371450347
,76.5,443.807412583704,377.013521032769,476.491777243007,380.133670559344,351.548264365743,359.656082380423,404.231216593397,407.191241388316,372.178836769188,420.91516228232,418.522065691094,364.984185805334,449.17883602891,480.442161819265,488.971672697928,402.272632143979,249.464445652342,409.728483343582,420.495858343109,379.297882846944,425.769559366466,484.165582421349,466.045599471358,451.081314070479,486.21788462669,505.749411798598,490.363977744822,394.241913341355,408.603393235299,409.999198756782,468.991044236065,491.397448709743,461.992686826047,450.113214963436,422.650078804949,377.0890657824,395.087851906786,475.908024377623,476.178692041663,486.537635727498,414.097197460323,411.937881369268,446.378129690373,463.706225108488,447.659388781417,445.675113772744,408.915714077184,428.552983282125,395.04553090179,495.012756864532,504.38202767534,478.440395824254,456.238167897238,463.736668920412,466.143198888525,448.186643905874,469.696704072695,407.676759179238,390.012791304818,309.436522038433,484.112509163184,469.724733229026,492.262542882841,454.478067387523,489.59631038029,472.370066072628,448.6362805365,454.414003414734,427.007273569413,406.211177451049,400.765544725399,381.57568394833,380.930892623071,463.811403208906,489.096126749228,413.453421802709,429.380758907771,449.141772334035,427.982198739635,396.159825185912,412.03260874851,395.559222044124,409.275095723448,324.33275197447,459.827459509053,247.306458209313,305.753613243201,365.004011494542,400.703126120593,379.947549023628,394.165703174266,388.106073081812,405.042020083031,394.473030441576,395.439881525862,353.588503930527
,77,436.484467029897,397.402713202309,475.601656456045,382.018135569905,354.221680763751,365.352721708841,407.770883183559,408.772039098606,375.108299762002,425.267524138559,426.479901444238,371.838257711502,446.60989503042,479.463510341619,484.132618125886,406.784214517475,266.145913661243,414.381742035744,426.932574716446,385.078585829617,431.412041716241,482.583412324142,464.153810955152,448.692596254106,480.014575811108,502.75507018188,486.375649703809,398.662954319205,415.530995612797,414.641389115289,493.461976963682,489.15424744522,462.773394273203,448.534723854367,421.420935247822,370.617319116585,395.209764604299,472.683319284706,473.087720340682,483.710385994645,411.259922324392,411.820832470203,446.577866267177,464.130165228715,447.12204052846,447.175458955446,408.631508605321,426.549392757607,378.471495631168,490.562350742865,498.716552573708,480.315394797152,457.821398836029,464.220814053217,464.294787243236,453.344502465407,471.161045264568,412.876120221254,392.71618845479,279.569085789439,481.798869585163,467.734576164467,487.93597074588,455.123028863785,491.554155429404,472.91590298696,455.709082847163,457.777661596121,430.678935631243,411.322907894208,408.25952258499,383.854510156005,390.950509535619,459.590597056309,484.922657859579,418.98386417381,441.669419867074,455.582708942793,432.19677790852,402.930794535481,416.434997912861,401.828748484063,415.339580434113,366.63859375717,451.962994294348,239.121226555061,298.774907157672,375.67682356001,409.159546392373,385.21462780465,402.92986871705,393.633924121643,412.569315626532,399.350538510125,397.617701845763,352.059369626161
,77.5,427.375933198469,414.879446423266,480.104094452535,383.039473568452,357.412324237986,367.058756783364,412.6406998312,416.414957468814,378.090766599035,430.162854980193,430.205338492112,377.465491585721,443.110946964737,476.645080278486,480.473102418337,411.130654713113,302.329537190898,417.691596326114,436.29029137661,390.629658962415,436.599981357673,477.642968242873,466.697664027019,448.694658519632,474.081268798325,498.964418591114,480.950721870127,403.608941972413,422.170026258697,419.32310070019,501.784278900741,486.896737340055,461.369842175655,448.286964024215,420.112683667937,351.453812192692,393.912633685731,467.782212961759,469.225336981172,482.284888784075,408.580164118234,409.137885436306,447.140108148991,461.128999978347,447.769044095591,447.799192947471,408.862891958358,429.670433652481,362.9424798533,485.60406599915,494.183003305505,481.823016129417,461.080790790126,467.799401401528,466.574397095212,449.258381260021,470.427623555822,417.996975458082,395.001227341151,253.758107730176,476.439380587507,464.355411693144,483.977277347578,455.899845790861,496.654100769316,479.10182408015,461.81140288082,466.067016771644,432.166035663949,413.599172572243,411.00091926603,386.115953509724,414.463881680427,455.088937929329,479.333045996253,425.055261825831,450.495371565343,462.115293927676,436.623674666316,409.306748277848,420.916936323805,409.973342364652,418.044865832395,406.05745692456,443.169011731809,231.303634772689,291.953586434056,382.399509323986,419.052882832366,393.99688965985,407.149479503924,397.63676663375,418.940457846727,404.056660701141,398.438675001769,351.51829572558
,78,418.336121971446,416.355750510747,481.495948190281,384.204688817094,362.913740947346,369.024603341407,415.691602751563,423.180103308789,382.0373735123,439.128894565789,434.977095143035,385.467534661204,441.5433340414,472.673910390217,479.856156919337,414.096113025956,332.646333696296,419.54451987738,445.549530687523,395.809334650789,442.223465871922,476.81854413184,464.018893079513,448.797243772689,468.339010841189,493.159688145103,476.775615527669,407.92692454133,428.549674824995,425.395974460642,494.78293444475,483.814419533739,460.158568981908,447.038391983222,417.112421662507,320.250238848788,389.588237895292,463.247399289215,466.333864966772,479.039674168413,406.062512136266,406.161850972517,448.746493501076,457.178210149589,448.514595616301,448.614653876062,409.449456021721,430.665474509887,353.580802410618,480.250717689269,490.492681403105,481.91461539326,464.303911566898,470.931217902924,467.078489190871,448.874983594192,466.424314692784,421.373918454103,397.848681404616,229.621884501589,471.014712882825,460.197473225528,481.421629288795,456.336585972307,498.7951407997,482.403694412052,467.776445411896,471.622502680227,437.403291810029,414.968847235954,412.337060398731,387.64731310172,432.955032209552,451.145126001848,476.717602004447,431.542325461096,456.763007330833,467.219711521879,441.968037069362,414.146470281824,424.72493482173,419.544710558431,420.949736744692,424.379552356474,435.267983432024,224.534946656128,285.713196652254,388.648491940266,429.758477311418,404.332756656342,412.22301663123,403.984062965341,423.661125020858,405.96635216023,400.099948846801,346.158081014378
,78.5,409.318833809257,410.232911875049,477.492946199284,385.714327146539,368.862993047469,372.118317818906,416.61714235683,423.271034110363,387.761044847813,451.534822456692,445.716362983671,392.296529255779,438.382187673995,467.19069683157,476.222198991354,418.012159049034,358.658986766026,423.14061048732,454.965690105213,400.046457555228,449.448892873333,478.491696543304,462.266778413009,443.200341285006,462.517488800905,488.694624947653,473.044023889145,412.520166868647,436.111419089391,430.673246580322,491.46234503927,482.806842610714,458.515458112302,445.274850145195,416.074574296396,295.159677355639,385.636749037099,461.318355049556,462.760625773242,475.868293789512,403.204610391184,401.955934388529,448.129130914575,454.45048935232,447.109795969212,446.944627007451,407.414685064097,429.125219403877,365.420038441353,474.014939693793,485.917684515097,481.303079327387,467.236791499599,470.60679367441,464.330085720991,446.531295464804,469.034224843655,424.339683857002,400.173101294947,247.544047734512,467.684843495457,456.479132916405,479.661500507868,455.451138035256,499.332777760431,481.390355477262,474.198659856303,471.144395580051,442.684152735197,419.359651403943,414.859298079133,390.002697345521,450.785510411352,447.6208755572,474.599542818987,437.991927444874,465.02430512357,472.107421797982,448.786780988557,419.986757976137,429.989740904972,424.137526433521,426.596981910697,425.44165195796,426.683377911221,218.640305983443,279.327354353161,398.588517012738,438.47851320126,413.405576314174,417.540386624004,411.669530967316,428.629285516395,407.984090833652,402.559252306527,339.070501098737
,79,400.796320164933,409.732772200118,473.657311437602,389.557797485147,374.348116090378,374.976714283865,422.175921708312,425.848282430812,393.906044611772,461.090888076514,455.6180729312,400.497990003869,430.508669740107,462.906258109912,471.349848999959,423.249919799874,383.35991165192,429.061671634115,467.283118850326,393.226443831236,461.824401784928,475.487882027249,466.149426210302,440.532351899024,459.042110563132,485.239204952944,469.415790226004,419.222022641951,443.362477878817,436.186455732618,491.899811340222,482.383194095325,454.210299441618,446.675757567632,416.420237007084,276.718374495385,382.318192353359,457.525551185782,459.805706650047,473.911145229966,399.506010357722,397.712426293368,446.368283264385,452.943624497395,446.397518666942,441.893220749388,405.369674017154,431.972218723135,391.161351809925,470.139274308643,484.933597736496,481.428846634504,471.685673558649,470.512283433413,464.887817184008,445.435998927411,471.7537051044,429.810265318263,401.392008748765,305.040496035579,464.451424976862,453.131901948448,477.406693827355,455.323343680992,505.232032326749,482.782976395527,478.472300467414,474.575161678941,447.542599610353,424.640096025714,416.983320394655,394.650741664898,464.536043943375,444.362840340953,470.042439821131,446.601516040633,472.844627233249,479.186047987853,457.049825858357,429.026525410821,437.65393284127,427.454302285133,432.353537849992,429.903916357433,418.005315472696,213.055565674514,272.767355787587,408.280511174306,448.068418979258,425.122627372884,420.742495964398,417.40416289723,433.858056563691,411.423357439161,406.761248895801,321.89030809357
,79.5,392.642312573788,410.211112602817,467.641165438983,393.957913144763,381.706428370765,379.380445709565,430.730432809806,433.145832910511,400.672754678831,476.138691370322,464.494382266379,408.805147362248,425.178750671852,460.688870770887,468.367299408006,430.473932415561,399.029041836618,436.987635901672,481.954434218335,376.346998158839,475.305006626034,472.043434090284,467.948238996892,441.981682226786,457.921616222927,481.638405429268,467.172036620829,426.094031448357,450.021011289431,443.616542667666,491.980624227866,479.560437526658,451.52604808492,447.433554924863,415.690949805237,260.637791888182,378.4642019871,454.626002439314,457.722920424696,470.279056250061,396.440710731739,395.216853392772,446.451021554563,449.777680670348,445.526601677414,436.989000994965,403.143056606621,433.906216745464,410.941585116971,470.443792885162,482.613733619705,481.739269119324,474.851417260595,471.45094823789,463.486427722019,448.138008100012,467.840756528507,433.782419125077,402.628877971354,354.584616983631,459.723453542551,449.529725025945,476.627087622234,457.646914588483,511.052641709123,485.003437318873,483.581057465815,482.470763752954,453.70273559615,429.735330553138,420.648371100643,402.420659949819,465.912608509382,441.80641712791,466.488457282037,455.914095032999,477.697227760515,487.911096273223,467.577323575897,438.081348331396,448.181629869548,433.637012621038,440.451310951618,439.154237821165,412.236138604422,208.31282928719,266.636917985576,419.739991038733,462.271831678613,441.193342470351,425.821446890754,424.368533702984,441.210025389318,415.413105819996,413.588786930269,296.489823321149
,80,367.604850199362,408.747930282562,457.4551069111,400.432206575784,392.165095492587,387.211102628743,439.291107107373,437.027245796938,407.302491254454,493.8350765271,477.563860417526,416.150237744258,418.905942943353,457.755400835116,464.084811343645,441.113636083069,404.879657484124,446.634419584843,494.14214475969,365.040077209165,491.148606692939,474.0567901678,466.998631333824,441.686784778271,457.57505003811,479.580310008801,467.09418017592,433.223642860857,460.06741375331,451.766899533213,490.696657721208,477.961458307794,449.933725937551,446.095175616479,415.402356377701,277.407488383558,375.160915003636,454.98256806729,453.526423042938,465.789247749146,395.608460482483,394.702269068005,446.257407376765,447.529220451826,443.901731454175,433.868709178469,401.217082302229,432.791741975936,428.081653712255,471.033334551377,475.1344709799,481.278225647633,475.397191843696,471.274983693078,459.727282542309,452.025498662969,465.9835919357,436.262911144974,405.974152147362,398.986632512843,459.498012791631,445.589690440314,476.442587912081,459.257858883411,513.18500025199,483.838979291484,491.997954394973,487.600727407571,460.686192862289,440.243353884295,429.446761736764,412.497052246616,460.673345781103,439.710323624378,462.560919651547,464.171629532942,484.975360830242,497.562216389592,478.25819924183,448.181234632163,460.926655962866,440.985885528134,451.750911288981,449.364691674683,408.862014974761,204.183801446763,260.180024082279,436.166144599377,478.180957197737,456.053881186642,434.539970337619,433.28689208449,451.992585384001,421.598611225943,422.2185473167,277.172667383126
,80.5,332.501248907339,404.983866907695,450.969130886479,409.964399388902,401.123278140572,395.659957642202,450.785630841579,441.927561797974,415.407079876291,505.270799563718,496.094631690051,427.353681321352,409.739941283222,454.853965539878,458.35006064285,453.65419780697,410.968442519649,458.806335840258,506.890166528558,359.581663184084,508.439393440196,474.930756647565,469.406082397945,440.810934693252,455.004534225605,479.177539547564,464.663603919195,442.86403397136,471.84523441332,460.879621371195,490.763517584444,478.028312859454,447.008335426606,446.732603071763,416.555106591074,325.014406909253,372.198206067055,453.705251409205,450.101403232699,462.329857012166,393.2657099444,393.707052066381,443.052704406219,448.218351453021,442.812255677469,433.461033151305,401.847835945314,431.514081941665,441.969715287499,469.083438706797,469.064934496939,481.496781693525,476.855947948166,471.282562169538,458.677104535691,452.72550183115,468.365643415415,442.403615970542,409.81541201008,442.678731266043,460.113163411623,441.758032791691,474.225265143412,461.15671150237,516.984397698965,486.108881831311,502.039640711817,491.585268675528,467.52432128089,452.085438324081,441.400666432271,423.754716817301,456.151547953194,437.757402906435,456.919501442198,473.087150864931,494.65266516619,508.111878498767,487.847664670546,460.557896963787,476.420545302315,449.393433221459,461.214299686964,459.665484982819,403.393119414664,199.85360883706,253.234123240985,451.222193489727,494.256019432385,467.275903075375,443.801742849153,443.125523002134,463.913737042714,428.874436525858,431.488778098739,268.188777970425
,81,305.373033419206,403.037671452472,450.01870449217,420.291541524718,409.269070231343,405.497389469452,462.311284371894,452.585326139477,422.204688325938,514.615957393582,513.722347492011,438.90287196711,403.726634507701,453.355596331083,454.653049880479,465.314850811133,420.846391268321,468.997967264401,522.033021193766,359.173997488308,522.178593313211,475.019268111286,475.268359791819,446.89054180662,451.024199275761,477.729619844359,460.454553824109,453.343466956241,484.476733245497,472.311464387619,490.551784794491,477.189332911715,446.02797235341,445.806837787975,416.609743048209,366.502873645103,372.225560954793,449.018460265105,448.666803970081,460.459380646433,389.259201069184,393.210879768424,440.545844688671,451.89252905927,440.967015952184,432.6565992187,401.95665288053,432.095829599441,443.176019834205,466.502570627857,464.428881824667,482.596071062878,480.731016078692,473.25959044192,456.168077460131,454.08968786354,466.52019186047,449.876221401566,413.674703091318,464.34749657492,456.984245424365,438.771932601474,471.345960121083,465.36204663674,522.040562252274,492.091701330889,511.09305883321,499.707994352912,475.220084875738,464.433300910474,454.533188371186,435.876396083859,450.898303874645,434.91349094547,452.106286759554,483.151268266026,504.080097089285,519.464534578862,499.813796428564,472.939780781815,493.46859879389,461.744677201686,470.948677853717,470.481851575671,398.084868425895,195.473049417304,246.459584331642,463.23626507725,509.048370581529,480.471790745457,457.459816061803,453.527586870676,475.761570326957,436.839113980835,442.482490109598,266.626620925743
,81.5,282.296720718081,399.502741275001,447.812512557597,431.436853577654,418.186535184424,417.734760967419,472.114833417773,462.974164750698,427.14959388076,528.550868190163,533.72630025796,444.037750803112,400.750980955574,451.531826129182,450.55387421455,477.029405961101,432.404096403665,475.727389364151,536.387128795355,387.298499713296,530.975904810647,484.0175119782,488.643818955471,457.266643886549,446.370000038196,474.401010258575,457.018526693989,461.993153922567,499.122862640905,485.495782341841,491.325902750789,477.939921146458,447.380836786454,440.437298521291,414.289446016088,401.743206340133,371.716283603896,445.425278106423,444.293130141987,458.649533665251,388.131471782103,392.957139921539,438.375548445287,453.660406952768,439.272705927146,432.4999586633,401.190668526111,431.532122924299,434.854125603885,462.504875392806,458.110550969947,483.754820659354,484.011456276965,475.687159435662,452.645883062301,455.295625044514,464.108872086103,454.051376516915,420.301935937947,467.792010343197,453.721114780362,435.563327543103,468.961486720384,470.39682906082,525.946784548114,497.507047395596,522.650905755557,509.880836002682,487.147807555853,479.788588208531,470.006921266719,448.604582672089,446.932829992866,432.172425443278,448.917573918296,493.987348224913,516.066247065804,534.09439983636,515.164731308956,484.085043617617,508.015963957051,473.488551741867,482.091023465248,479.929682960686,394.518602010587,190.739226184527,240.534244025414,474.895362709817,520.467410432489,491.723183259762,471.887016524709,464.872290809724,486.917191838843,449.39331661808,456.266114615304,297.974629013943
,82,262.934257415895,391.927804726084,444.54780084794,443.404547324129,427.422192662717,428.155647947295,479.815796492856,469.419247880146,433.794701007131,542.544617871836,557.116901757629,452.978557901201,380.758011820688,448.123900732548,446.043226067957,487.322330218974,441.107536830871,481.453400076454,549.38757193281,440.967004194814,542.750932020518,506.80220941693,516.169264679454,477.849192714467,441.866485481622,471.330082398661,452.560481433186,471.58997051767,514.225851809411,498.102812247781,494.024836975002,483.435409909845,450.69535002419,437.176589193502,411.916039002424,434.723207652825,369.54626853204,441.270795443972,438.710994759042,457.498346356201,388.582951920877,391.209593607983,437.381817688121,455.420752590554,439.374561323978,433.4367961443,402.291404031853,430.023295075162,430.59302362409,455.763317071353,454.132758863747,485.341847001294,486.629426040879,477.732425454486,454.24105554995,453.364523163307,468.295824428242,462.192763653506,427.203477034959,478.268201718265,449.961169198582,431.106738587231,465.03942272496,476.339591073473,530.517008184484,504.895332935748,540.052317567946,523.049845544758,503.573583043339,495.049136350438,486.634152507315,460.726530366362,441.96395797379,430.06034168191,445.186495841242,508.465090719345,535.023641533488,553.774166482288,528.114109410541,495.449478620241,520.495617079232,483.14803085026,492.058225473623,488.790256125499,389.101579341874,185.870568455334,234.888941823633,485.113129180406,530.937540478645,499.062835015266,482.380711364083,475.544270336897,497.322894180265,462.508058265878,471.335401062866,359.364265469649
,82.5,278.537082912854,387.446767040567,444.335628747587,453.062743916763,434.481593082954,438.736679126366,484.053455527145,475.112004400133,442.214431941485,557.633343354033,580.794437034304,469.425651873475,352.607692084319,445.129958930392,441.481185191977,494.516527228164,448.695658698332,485.67845816334,564.363799053436,488.576581726395,555.50780749648,539.045817710904,556.962323627787,514.323132806305,436.348324305932,467.106176212625,446.69685756368,482.080860430171,526.856708470888,509.840554236811,501.378711338098,496.903114841692,461.249308872518,436.433805323462,410.817619528206,451.763642657771,370.527973822095,433.510100730678,435.526229166788,459.21267944853,387.032348187852,389.679834631927,437.299615627769,459.023985314207,440.873983045188,435.078389897973,403.865440965123,429.401721094226,427.099683945072,449.411892426944,454.060534230483,488.081577593033,491.663181984809,481.23469618669,456.468782827391,451.9192395505,472.531303365291,476.132886768226,436.575267282278,493.44709276347,444.715333851018,428.237272108218,460.24416671167,484.519552154433,538.42922323319,516.907180940915,558.941474116968,541.629468806775,521.636677238649,508.055595814697,500.228134684195,470.658920941597,437.121998809565,427.712303869252,440.575300458064,528.359273072856,557.500114633994,574.45363385117,541.745670079503,506.204334341756,533.005714464858,494.233909811234,505.107956324427,498.276109264045,382.111969389415,181.353452854493,230.785324545065,491.424805339278,538.956148447577,506.421180864109,495.874401306602,486.452390074182,509.140305538245,475.166741530374,490.076405283846,416.731498940667
,83,321.500718714816,384.540919183298,441.119181686536,461.053186553523,439.387996368415,449.697516706659,486.653312983613,482.835334364189,448.533963940503,576.768357411351,602.908326570133,483.353933067925,331.212553090463,442.174360860148,437.243838057122,502.232824814054,456.433320595717,489.256212879339,579.005196886653,531.568073940557,566.270025701971,579.724925446038,603.405359102446,556.148858083833,432.967096804206,462.659438817569,442.406705291521,492.024288749235,540.028559211503,522.303907229374,523.150240334845,523.747900997748,486.618305090873,434.902431061662,410.830589447301,452.809387192717,372.435317672946,427.346998145692,431.390425824213,463.797848068428,389.171655109414,391.854438534021,437.98368709736,461.389125962827,444.288016430879,435.664561066427,403.69587686064,429.691912284956,422.423827776707,446.387359882317,453.763166891028,492.641451197732,500.016658197298,487.622421898149,459.184126547565,455.916733981444,477.148907640531,492.901391042941,449.800611936721,514.405565372596,438.874910459119,426.542538482218,458.04612091463,494.692001411515,551.309920749544,531.314417685286,580.784099763595,565.088632019912,542.690425042691,523.603031641658,512.941449572586,483.015279153373,434.225636958647,425.707016437735,436.66288307404,551.508861610966,581.2252205861,598.347986619562,561.247924975761,520.490436560978,546.265841862853,508.277669169813,523.829085331348,511.955940660474,376.442581317311,177.239970438477,230.941591218382,499.131662075321,550.011810442978,518.774646842941,512.433355519527,498.230831683419,523.237967395064,492.584361515128,511.708773172945,472.063979932977
,83.5,357.295164673181,378.751427067951,435.888734679183,469.304127532098,445.362460891935,458.612398130951,494.643695341744,490.309822252376,457.704232802119,600.107662733341,626.819600665884,497.525310786499,309.051028265968,439.236595487558,433.864310431709,512.763371567853,462.036152094146,497.430631295335,593.056564323183,574.17994411872,580.729416018589,626.070959564601,652.400545926398,599.042968987318,432.378714466199,459.187223308692,440.001450096907,505.308784784243,557.597692139362,538.009219034122,563.098410322149,562.306569288371,524.419628462408,437.377957023215,410.512508154149,457.074934200747,371.523058052056,424.26120317754,426.721401683761,473.389488033067,398.932223983255,400.462197061883,440.533821385345,462.597771763386,449.071152737074,438.47153186134,406.167321642393,431.344075686204,419.738768705003,444.590648128636,454.167812517717,499.225187809292,508.427575501581,496.184280874232,469.111421131349,461.633975655684,487.099234130648,513.131778321166,465.07183050403,540.594770014618,435.568320690942,425.248076463242,457.730695344158,506.960798998848,567.534600064467,548.766081667594,609.314911140408,591.11294424324,567.312937878608,542.587616069195,528.066798502589,498.605731503172,433.044257120136,426.442054268035,435.800104000111,577.1420216506,607.057014954747,626.042767930409,582.836222031278,541.13332495868,564.47427830488,525.476598868959,543.308835646799,531.398548307424,372.317663199982,173.494773217081,233.546336822999,511.669625138516,568.508463198219,534.626988534428,528.5886743962,513.305483627135,540.255094447228,515.558703939543,538.601174003211,531.050970194078
,84,392.176630775802,373.312095191122,433.886090837742,475.725036088877,453.786125528335,466.254437864101,505.85172036121,498.669178090089,470.934774386731,625.939180061115,649.143819442188,516.985342697696,289.544945948155,437.181060550974,431.24887847393,526.8668624947,468.231848094073,513.002747255389,612.936651877738,600.595567549208,600.641434114514,670.544873761187,696.412787690682,641.301456217621,431.996243483758,458.115349089898,437.908656563593,526.911072720541,583.502488167488,559.163692186924,609.098060237755,605.082116824966,567.296260907035,444.657679522305,413.515554357412,465.064288540561,373.042613324163,422.613988443013,426.048289993911,494.269783971192,417.079334853545,420.159418333686,444.867598083179,465.797098746484,454.785704742385,445.45200389381,413.0746711806,436.227222080937,419.663719258745,444.791692578553,455.069366584876,507.763632577974,518.214459978216,507.050145661482,480.028523544382,468.081534012666,500.409288378493,536.347535067349,481.411410351528,566.558924879207,435.026760158341,426.737413644386,459.80802646736,521.647542943529,587.204733033356,570.396731526512,640.475228798729,616.716004254746,590.398313431706,560.22959723649,545.379290755237,516.837065595136,435.757201716143,429.900457230655,437.109329810948,603.064275791657,631.726160124261,651.203361628215,606.264262344709,565.156642351249,590.451929086668,547.726680943064,564.140680054761,554.403192940496,369.587557403939,170.218414324036,235.991438322723,528.081392461286,592.180969392233,556.041637971979,549.923748240931,533.00602491717,560.33855472966,541.260173924002,571.368387063448,580.424588104868
,84.5,429.294781636845,371.97843632849,432.962180800494,481.616988825678,462.157854640022,474.493194629873,518.066978499697,512.56921225295,484.244230666209,653.81646236999,672.39884960132,533.028280532033,303.782814099005,437.861462304289,430.111479833291,545.269435167593,478.736960836917,532.56361362999,642.944222058893,614.690339167386,624.101495326236,707.756368009716,728.925024194405,670.285693668531,433.382395399393,459.720361834581,438.3703609292,552.606511556872,617.176056282397,586.12400118145,655.750691094692,646.889468261688,610.155059262148,451.386165084749,420.424938945488,475.418782071605,378.86655920732,424.513953530876,429.327138456704,533.573900248564,448.803001534313,453.132948082978,450.68597438735,473.542209374368,463.416713771911,455.340670423652,422.413193589116,444.141138640412,421.783409098489,450.607587515394,458.275789072668,519.185871003101,534.682461862826,522.438543421316,489.597251830777,480.395474585358,513.34856534648,561.036305818469,503.946896628266,594.889177519295,441.650645365603,432.862744501172,467.575903426299,539.575244934536,617.892058020022,599.529817277746,671.485875623392,644.13645667891,620.053997693525,581.210217091961,566.522960076401,538.824049185799,444.269401101529,437.067930234008,442.327567496352,630.185673542841,658.416161117979,683.123304861971,638.232683255101,596.232939810649,623.576012984664,573.243118407115,588.456678560505,578.918349998442,370.117877527414,167.771119515391,240.366773255319,549.01906911101,624.840255784599,587.821549777796,576.65011122505,556.078181574687,581.942741869662,569.437189344625,606.920025601105,616.07696511885
,85,454.931401576024,373.392192944736,434.237061641341,490.87702668732,472.958965367906,482.729821401965,539.9326395968,532.712917230368,502.235944411029,697.770033391195,711.393260542168,548.174023022306,344.296033757856,443.199113898974,434.466814282564,567.132366773143,494.425240110366,554.928505528102,695.229270119334,640.677493506053,662.770184940857,739.082480197454,763.528442743058,690.522142403816,441.69333793237,466.47070568463,444.612374625815,578.387532582883,653.577580355351,616.700496398083,703.373593833969,683.515100434073,647.104947716996,458.725131053471,427.956014636303,487.45657537629,385.825016153251,434.43466648314,436.684811599105,587.157277249159,490.217061025032,494.113436855123,458.567219769184,483.721003628678,472.401825862566,466.385299828396,433.835165793717,454.809686468298,430.063295771943,461.25274820195,468.476299122516,534.648804672399,555.964343215495,542.616879463902,503.765541136473,494.951922004039,530.125576535303,587.28867579298,527.879074719261,625.757918231994,454.178511743455,445.51583773497,483.33984053603,567.336123613768,667.15376741996,649.860720405268,718.584256627666,683.637725394958,666.826617570342,609.376078327981,598.120926089025,567.680175675531,457.796700840877,452.126018942078,457.870767131922,669.513816497992,699.606921203108,734.683938586986,681.267485037208,642.548891628606,668.00987874662,600.496267150451,612.817200819955,606.773439631681,375.26781838257,166.526868057797,247.528664899558,580.191451533562,676.99627559186,635.449076311135,599.21086416151,580.315510940131,602.856958117367,597.37174956746,641.152838019063,654.189317842831
,85.5,471.499764917911,380.586114603108,444.133280124872,505.094287035944,490.082852208968,493.995624415777,570.756035278351,556.791040982226,528.475145905488,784.944685129436,784.554390776089,580.345187915111,382.564614631838,454.073291466663,447.50330676046,592.14807098582,514.102777220441,580.971672023258,803.091642453222,691.232876262475,741.860988132562,779.973329715904,819.542149125968,723.452607047976,456.168968116655,480.733089089615,457.376850928551,605.515975207209,690.20486846307,647.555035880041,736.260971395837,701.932260596711,668.442895101298,468.802442993616,436.249547418138,500.847316392169,398.856950048351,451.054864042391,452.016777308113,644.053765011132,531.559144109473,536.066720878414,470.318103089972,496.646813039264,480.770185651045,478.011695304493,447.709807625104,469.172874346204,447.713967327166,477.486190406466,489.051196385359,555.719916021624,585.18005303979,572.157130658348,519.354731735038,509.857374090132,550.87619794229,615.944425949164,554.889608310745,657.146595775982,476.485896575965,467.743906517193,509.002760421607,611.63130751575,756.357189048445,743.78223440214,785.790060623263,739.761884463706,731.65284036493,647.67303740606,648.712308778822,606.480748893599,480.426321521919,478.266927057032,486.157459607351,725.104468303287,758.58770658499,802.709668836251,742.750394415009,719.562918940999,738.946202139482,634.149682680282,643.437119630741,637.933848412397,389.42835829826,166.747171157385,258.242091267865,628.980783231672,752.818923120151,707.667338691959,622.153039721006,607.639846728923,628.933632694506,621.198737301667,671.070425318496,689.489036416786
,86,501.270629311907,398.897556251055,465.185677002235,524.151658650625,511.262808740094,511.159328986638,609.409967017009,590.20950720333,569.136040325957,970.394872660318,945.625637707782,660.70844270677,431.69507240948,475.150773207396,471.105594608444,618.769489981561,538.721999907792,609.301147322005,1009.60334525458,799.837405437397,911.264861885845,849.209641901878,908.91131975041,791.801765334528,480.053850666707,506.134613975909,483.158814227048,632.019527920015,722.859689810439,674.881172252123,747.835269572214,707.499475499985,676.500746177605,478.477648808308,448.737430127087,512.907450313311,423.409992508954,478.275223515719,479.216965398743,698.885516947737,569.50896266248,573.972288923446,485.386582898921,518.248031615895,497.688792569584,492.699350994565,463.280618987553,485.569104292641,476.68588420799,508.508811913144,522.264270946984,591.11559332513,644.70500086661,632.977368522298,536.240376127866,534.769474469468,578.453858673061,654.641346137671,594.153583848561,700.764155720251,515.275095662361,503.541731686554,550.164069467989,693.58798583484,916.791013905738,908.659600452509,883.630423429862,828.068982818155,829.575265615653,722.896071903798,740.347906821475,680.785131671486,516.688297027972,517.939408786626,528.140079904931,798.428677651324,839.317152139043,893.651987736806,844.093703009176,837.173669806581,846.877819163786,686.587899396537,701.555309740252,684.152356469902,415.6647921457,169.829135765051,276.320876868575,701.999779085457,876.480354058826,826.341466847695,658.376719160293,647.624657591223,676.478487280539,640.661128258625,695.091889286331,717.581534681267
,86.5,548.134681997711,431.400466824414,501.050669970405,551.473894334573,537.287165814745,535.14218738832,680.438016963755,645.524159751272,654.444228682722,1263.71424127522,1222.51445835862,844.714273934204,498.262093199548,511.685747419002,511.48109069635,654.101281368194,575.4345141231,645.947966577989,1320.87107118522,1011.90012033193,1188.29062060098,958.5715628137,1047.35050754114,916.193050207819,523.294152281342,548.484948331456,525.685369438621,659.686864018016,750.34046083512,702.159305838676,757.464306487203,718.674326111653,684.884077262764,491.211160022651,465.585974546079,526.66430663001,462.69882181812,522.556134270756,521.340750479915,744.099898462902,598.846669187539,601.922040210231,511.325731615681,554.716105797513,526.144845697537,512.074554342687,481.822833087817,505.740706408241,523.896671230664,557.898106161315,575.116657078421,666.226987346683,756.727336803119,747.201727021145,567.001351394483,583.181047116696,633.152151484265,712.236118641251,649.435421090558,762.65233037211,572.616894695984,558.444493369274,612.761483278917,840.823588763712,1187.65265304256,1187.01514057763,1022.88503207523,956.65659337523,959.77167458912,852.487042914211,883.299913208824,800.354677356712,570.424873478878,576.473437417099,591.325505629025,898.473780938933,948.389723891806,1014.67966034658,1004.92984070543,1011.84959622889,1009.30920962866,808.241709805262,842.584173202908,789.048489763099,455.682189872253,177.281309357168,302.950089831127,821.426339214577,1067.9131095522,1006.63031348567,730.439633398013,730.396874213014,791.090937027345,666.319278804461,722.179309983948,747.357483799678
,87,614.350898763424,479.531891101701,556.209171735553,602.599299698429,584.058142594969,581.692685225726,845.277564702972,770.669068437813,833.530031991082,1618.50996530141,1581.0983412816,1145.86635630333,568.278801992793,563.829202101037,571.231375114926,729.55682160843,644.681565273868,721.867804863959,1689.73042902923,1334.96992218637,1542.31404471436,1129.09012414108,1236.66580485359,1110.62145692677,587.91432791912,611.785325970834,586.680418662422,710.778240548445,795.377382076114,750.952260806499,784.532923291581,750.975473318747,712.303537935808,524.078951710077,497.570570719579,555.459692100022,517.444328285434,585.416179419134,581.495545258592,773.757679087184,617.245215801882,621.242319039934,568.639879019142,626.535922516991,584.461941761603,550.290331918584,515.954047621535,540.692655782744,592.452971054433,625.640613505294,651.147874493304,827.761198555961,985.692835191826,981.894401338584,646.134857009334,684.214305084699,753.550815704866,807.401959987346,736.283426018488,857.866365185465,652.144104163095,637.460069059043,700.855836320464,1108.74024728845,1607.74469421531,1609.33485733129,1198.64680952567,1120.53351365563,1129.72046853948,1051.80611115205,1088.91279164591,978.410960590385,650.254306440893,662.447697203737,682.358066354759,1033.26687229629,1093.79491978893,1183.03918506935,1239.04782111085,1255.56130675175,1242.47179412511,1052.37360388487,1109.39224408278,1018.07727273109,520.775618117932,193.567184361528,340.071187724137,1015.51043050179,1326.01980972281,1252.23151012805,915.665388686212,926.299629229383,1027.87486950071,738.718602269428,792.052107980148,818.704931670537
,87.5,693.208373567173,539.442954785067,625.162367618795,703.701736688378,678.564724107801,678.224601915693,1128.15662537014,1011.49119486597,1115.6750544441,1965.75844010924,1950.84424518899,1501.81931897593,641.450967499071,629.780557541489,645.686520670256,866.540701854995,765.468412888676,859.364206694087,2042.58262783392,1718.39295699254,1921.96737166928,1344.98283438044,1435.89290326256,1345.00978013736,667.021647317867,693.100256906305,668.368777014463,827.909131432086,904.978346701448,865.327210298034,840.613333936156,824.172941926197,779.129161520393,620.015374961506,581.458511246817,627.216511534739,589.634081108417,667.609801155249,661.027148302916,798.036598250289,637.639994436202,642.604509736324,690.350048646795,785.480219958573,728.610425968779,648.69336149663,597.948850287398,615.474799699851,678.0487753953,716.706617023806,750.738171204162,1125.27885144442,1361.40109877069,1367.9735741227,805.582314035428,891.063260885941,989.55153490761,960.287301581753,873.478325271137,1012.67388660822,755.054124666023,736.68409144479,813.335719981116,1528.95607892669,2076.19971106514,2062.48193617129,1457.94937370905,1370.41588471635,1396.07397181098,1319.18686556783,1350.06242091599,1218.35349857757,748.02607066849,769.601886889474,792.77655156153,1220.24013015885,1323.77976561532,1451.80628247907,1531.23272131316,1534.89506442919,1519.66412022351,1389.34905909047,1466.23277635689,1355.78942484905,603.069428825815,227.842316541989,379.643587604342,1271.49162499365,1616.78202804608,1534.26230219479,1229.40670990712,1241.0127253072,1370.19194684796,922.214535469204,971.463307877902,994.166071976584
,88,789.078688420615,620.237626060002,714.847959308994,879.499876950902,844.67602196305,849.42817414832,1478.01778033422,1346.44570080187,1449.45929328042,2216.70246595352,2245.11402577881,1838.98129510209,749.352631156877,725.381905338536,748.340087638666,1081.21906559773,958.415576140664,1076.47251436466,2278.1191672097,2081.32380216686,2231.14337275489,1551.6735230411,1606.23328021001,1573.07405023898,773.893894908113,808.342323881227,789.240490254661,1030.02010644505,1106.40584156931,1068.35001313452,945.640125156398,949.770021662867,894.379246378221,799.604368044843,736.556124381589,766.634665603181,695.493156244266,789.040039765938,781.645680035224,831.84010276136,669.918137458784,674.490585734913,919.170466032621,1064.61998744389,993.575601630947,832.443300098434,749.58029691542,748.830088293289,793.470795267478,850.315258856586,895.159098165012,1550.58385822022,1817.28982365857,1833.63970528863,1071.96103661061,1214.95286947114,1359.70612256014,1169.83731945601,1062.6464833125,1221.75881969046,891.48060697448,868.466053624499,965.359486198094,1992.56632148566,2440.55577584761,2404.64673999964,1789.47669161502,1701.79172048176,1688.89635290731,1608.42125191052,1613.82465745756,1475.3903040036,852.536024327807,896.140706601621,924.233125416137,1487.51515669685,1625.2619481231,1770.98425836985,1824.23258266036,1779.65682724939,1776.68362610006,1740.92058338231,1834.89487610639,1718.54579747623,682.276139714926,273.920717510846,405.116687123036,1542.22895338002,1888.75644602619,1799.57466467186,1586.36643837477,1593.76780494758,1736.63011618772,1227.3812714684,1282.10265995444,1308.85081663478
,88.5,952.367647258646,780.474560381955,881.060225945506,1132.45759003408,1084.85009893561,1091.52496182242,1836.27464486763,1716.49906879162,1764.78447264246,2244.56857871556,2336.27752545876,2073.77884041912,953.158022406373,919.696232865503,954.673401452738,1368.24260805936,1213.53844615487,1363.47260330363,2291.1672838291,2315.08337823244,2334.09280668164,1715.58429966596,1702.07999130655,1738.71811414366,969.338898268312,1031.99830667121,1019.81119968546,1306.31419344377,1378.2982670484,1345.85758150092,1101.20125364203,1119.42300826108,1053.68723886438,1103.6374970314,1008.82412346629,1024.45496315024,894.90629914376,1012.73271247217,1010.70607365902,881.973448130931,718.615864543172,723.649337268571,1273.78346716052,1467.12828119553,1379.49926343908,1126.40666672887,997.007229787323,979.571015758424,990.831880462104,1082.63518465124,1148.05641523811,2011.84433671127,2239.91252209022,2262.82482422414,1472.97173235661,1654.29613955841,1853.11961521481,1485.64999475732,1353.09373398263,1525.41480738886,1105.83492549633,1086.37266387841,1211.08199133846,2364.52003030681,2641.69255789915,2581.16779492616,2058.86171265736,1981.27591542279,1881.68135862313,1854.35322453875,1827.97274593165,1687.97580573366,986.262599427335,1077.62526600497,1119.40678307281,1770.58258250215,1890.83266197466,2026.49986585553,2055.93618614818,1957.00934256533,1971.45418038069,2048.51580732569,2150.88909902247,2047.00846715117,769.785654244048,317.916983461632,418.704265699144,1790.34735324044,2065.07214442933,1977.57814084509,1922.34214831625,1920.59058232684,2055.37721638461,1604.83386759918,1672.6908867032,1720.48975440532
,89,1321.89514653457,1134.12980997072,1273.01730152173,1447.08279677777,1384.73901739593,1389.11934126392,2131.15498313276,2054.05661714096,1991.49773902111,2020.00678105358,2168.24736339521,2082.9576031696,1363.97166555292,1321.59126567486,1381.62317280094,1682.02681484031,1492.23487351548,1674.2234135405,2054.43174210387,2320.36303759643,2189.42648582121,1788.56718188997,1664.44129905427,1771.35708281039,1362.39902531192,1469.38790160773,1454.42084271571,1638.7409453584,1695.99917677844,1678.83087742582,1294.62566671393,1338.80362636133,1260.5521220887,1541.94146736215,1427.15872107976,1436.50187795388,1241.38919916285,1411.31193333597,1414.00706966937,962.445420569159,796.437309876752,802.927687203089,1695.05929871189,1925.98494357473,1824.70584034007,1536.02831183792,1350.42295970115,1317.30863989269,1328.74085244544,1478.19121783127,1555.56879822147,2393.92562403965,2544.68396067265,2571.03192965724,1960.11278174335,2118.095547867,2351.14822328328,1874.5751947031,1696.49018776941,1925.6345074231,1443.66986892157,1420.63571142161,1568.57942470099,2590.46106162384,2593.21680607723,2502.23075266036,2205.37835025688,2145.79168688917,1976.72715298451,2047.90980947947,1982.51731652152,1851.84961680303,1176.21943852631,1331.63391431951,1382.01266154958,1975.34733830362,2067.48134312208,2190.62645243646,2173.22077329336,2019.62073043632,2050.23137185484,2231.64508319516,2325.33116599609,2270.38459027466,881.068278514866,362.929326418743,428.531774992418,1948.02005478461,2084.44207825184,2008.78838287489,2175.72068830077,2153.71802410809,2242.22914646501,1985.25131907554,2067.89656247502,2146.60181966415
,89.5,1817.84260872262,1593.31543469162,1815.08599006965,1785.90674305249,1702.15918852001,1701.09324891318,2243.12766659891,2245.01383948178,2036.22639097137,1626.88937778497,1794.14837253518,1837.72608253413,1880.52412532006,1827.13027131598,1919.6518608541,1956.27434768328,1744.53286726706,1947.28439418552,1641.38179925371,2070.58478724359,1844.67120605419,1697.70790222741,1485.32859737271,1634.96281949916,1854.0471493928,2002.59553192091,1973.97943278755,1968.45299753311,2011.01163472326,2007.82450245323,1516.61294730118,1556.70779379901,1473.85372861823,2003.33603323093,1896.41027771989,1932.95865919806,1631.56962152578,1873.0410389984,1875.94148301749,1076.07098790427,903.847437555326,913.409633958544,2071.1305716119,2318.98947968302,2213.10443292161,1981.12329785347,1740.91601898937,1718.11128351696,1708.04898494444,1924.4221901729,1993.87371401428,2591.68505256524,2606.59758881072,2630.49572944889,2373.32837281901,2454.55010300785,2698.88583563711,2180.14153143585,1947.84631771921,2268.85060207695,1798.61288640687,1762.28842005771,1920.30611490806,2548.47225422733,2189.9500764586,2083.91566986824,2230.43874531613,2192.37856790333,1932.99596487943,2127.90513343751,2015.50530805808,1912.46148674846,1348.09275461725,1563.37546553215,1613.32618626884,2066.75569573506,2119.02762694195,2193.55301945282,2118.38490009886,1906.58150443395,1955.64648613206,2189.5372083092,2264.5831497319,2270.148576702,957.889579469295,393.552693070926,417.456892228876,1932.95257775929,1921.24924438186,1862.64941815561,2202.79262841268,2161.76922365777,2188.70961262879,2261.86559640358,2362.7311810848,2480.77663799754
,90,2263.22497084225,2005.78244601726,2315.77038402282,2045.60737536972,1935.79638401752,1925.15198629947,2101.53182919742,2192.46201341914,1850.96719535311,1161.68992479262,1314.90719027639,1444.13964504767,2336.93830398053,2276.36447774329,2399.80005442683,2121.28395142666,1901.29756140194,2110.20155143963,1160.35883518747,1638.24281178686,1366.55019340967,1466.2066974627,1215.9171896377,1372.58963738088,2283.00953904241,2466.69594503415,2419.28523364383,2171.52816537444,2198.32324223321,2204.16149982616,1688.99965832904,1670.0902367609,1601.25488029842,2340.28836747007,2269.53493197127,2368.13444083172,1954.95481658266,2257.92739776098,2262.54424377034,1217.34547605124,1032.48153254401,1046.29936912904,2318.55496956996,2538.66439834958,2433.28682391763,2320.76979508349,2044.61336397889,2073.98920642137,2014.56686302772,2286.84571616202,2339.13089195931,2510.66018990456,2355.67921489846,2367.93162513695,2602.93494501194,2563.33280320862,2796.76225594716,2328.57476892259,2063.1182289779,2446.58342401429,2064.57908731369,2019.25727620907,2176.88018318502,2148.48100653754,1602.74875995747,1507.16226087225,2002.66328931155,1990.48246871034,1616.99174704401,2036.16391947682,1887.20327875657,1814.24862511184,1446.61033636202,1708.86293486269,1757.86229014644,1974.2461794706,1917.80711568802,1903.17825870166,1889.86294183558,1653.84495822919,1713.97184572114,1937.49854826056,1996.44025562085,2038.10198327792,973.920037355158,379.55649262333,387.655695852949,1748.1629741435,1607.92455492582,1567.75875598933,1967.79554215727,1919.79421204601,1901.90996988687,2302.79106553947,2419.22158813567,2586.79869751434
,90.5,2636.90634911192,2349.29863973801,2739.67782921448,2128.64520282513,1998.69790563897,1975.29806135633,1780.12980395464,1920.13301361546,1517.48768003558,728.80021348136,852.235542001516,1011.62447276401,2698.74381690876,2634.88084625773,2784.23528005275,2108.2499246593,1895.54913291779,2090.95149967359,716.723933764926,1146.03913862879,883.847027852912,1172.00753043821,897.690857152562,1048.04388189924,2620.3474296112,2823.5080952157,2749.57384354822,2178.36279218451,2174.14740461888,2196.46384578965,1730.42282068324,1656.85433214499,1606.3913657213,2496.61285769367,2483.71428131147,2647.38307067483,2176.65308327975,2526.68871241349,2529.55136121743,1375.40765288463,1195.90161126312,1210.27406628802,2350.88180161724,2515.07073103558,2411.0990718718,2481.03125539271,2194.70753839976,2292.86002576639,2220.50221898311,2525.44712977425,2548.09228884537,2145.46106877166,1891.78214800905,1891.90559347323,2600.96933359886,2413.61508853153,2593.42078640761,2316.0018489392,2029.93364556541,2468.89555834232,2218.37417369045,2164.41910294166,2307.12973040358,1583.13619883959,1062.18361607932,985.46204993726,1532.11554715954,1538.87987695675,1156.8988268121,1835.44422498112,1668.71367443495,1620.72020528016,1485.17285400328,1765.2036250408,1806.72918828864,1632.8859988596,1485.31306104863,1423.2802958871,1558.41414311174,1337.32265109055,1395.14855759722,1596.6201840921,1642.0360083067,1702.63938176046,957.601922629347,333.382964240749,358.758342484389,1452.7912138542,1216.7343830894,1193.95754978115,1605.86696083251,1557.18573782918,1512.64936133466,2081.10714361648,2194.1910396551,2392.31772049621
,91,2823.63396606385,2492.59212192082,2962.92670206811,2023.1952259684,1879.94226028289,1849.14767490529,1378.88700170937,1519.42462622368,1146.30262556023,408.945892960018,492.203728439243,617.511574854681,2820.79342859874,2748.98221821202,2912.22254624212,1918.29814374552,1732.16318643245,1897.06962725219,387.261949924598,702.251705144257,506.998298401594,836.5813149252,584.951405699656,706.990111673628,2732.56034253266,2912.3081739858,2804.74739787635,2002.55496471014,1974.62681954302,2008.19331690679,1647.83344698007,1527.63638283547,1496.12308085,2392.22965434939,2442.36234865221,2672.8119131981,2163.70424000651,2541.11496612415,2529.29681229351,1512.27240362064,1349.31740094866,1360.48433137392,2109.82500476099,2209.75577259932,2113.49390455764,2406.66846085156,2139.68828298584,2299.11419743732,2210.45898173978,2506.2789518396,2482.26997914972,1638.43222166061,1377.22461943749,1368.57285942541,2296.52709384245,1982.56358048483,2091.16229702654,2023.41732159369,1729.99044211089,2227.11781940836,2151.67289063849,2077.99266050448,2184.22269028384,1052.82693438729,596.982356089801,543.15473844778,1046.49703282945,1057.37508817463,757.502852854179,1570.74903929466,1387.11203278196,1373.63570330127,1405.14724665897,1648.40862571733,1663.77657314909,1169.12592485482,1021.69983310621,956.249844468767,1182.40373694214,985.991308402647,1037.57830155955,1244.41885736785,1277.40390768524,1345.89978867807,875.549044924599,278.768751463071,318.029055481179,1089.32927067186,823.672683615685,813.29819072291,1209.61831619309,1169.47273763954,1118.31101003058,1680.6755030317,1775.7859068018,1971.14092671925
,91.5,2522.77145607088,2192.47570924129,2669.18119890248,1748.196400047,1597.96999095359,1565.94167736396,972.25156223943,1088.25096918622,789.418414901492,221.46472567229,265.455143047415,334.730932425825,2453.98610669668,2384.00154868453,2532.21094517998,1611.98218338336,1456.75212777805,1587.06325551597,190.168626169728,374.219811512123,257.914045476394,518.76676326566,344.841796027516,422.369832573931,2375.48206318767,2501.61194072378,2384.42832670717,1660.08264493465,1631.68045137019,1655.59300643288,1443.14155931082,1244.36742293675,1247.18973643968,1994.04435274888,2079.00699942705,2365.37207699869,1795.0981349902,2137.4107294735,2114.3387409188,1568.12132097815,1417.0928404162,1425.27729527084,1687.00168215648,1730.68651300812,1644.84476792778,2071.43829916501,1846.99293866267,2065.59465163646,1846.51721456574,2085.82299674965,2029.41476506879,1143.82940268488,912.783263581631,898.048798711516,1757.47986537958,1410.91942060088,1471.30552708621,1498.95268193369,1248.3389891251,1705.25817786235,1758.51369421045,1678.32842725678,1748.22980071091,586.638443124693,257.476843038148,230.348158055082,636.999473217477,647.369834163092,417.836727528249,1216.13361863048,1029.24627473009,1048.55217113396,1132.54570588938,1304.58009751086,1297.4531486383,744.571574074117,613.171492133984,542.309119555869,810.587054108509,653.007190219425,696.425774943908,893.66629271292,911.100552598495,986.984443140878,686.509750728939,205.30951328269,253.214124553135,725.733275086656,497.098337487276,493.774023704949,828.856581720685,800.837466264634,752.896570596405,1206.14426695725,1280.40576922012,1454.23243163065
,92,1877.91621721054,1616.43638900551,1999.77779813208,1331.54491721547,1194.39269318534,1166.01978600684,623.176956404623,706.004202277634,486.888441452814,129.102909101382,151.041396469149,182.840440928826,1793.57792350291,1740.82492169362,1852.09283924404,1226.75907101153,1101.54523738672,1195.58563807769,95.9458278400707,181.163607858894,119.058899442246,295.634660834514,188.95076169521,233.732541614072,1733.94107219401,1811.25637050922,1715.06297695955,1212.56788400356,1183.19706099652,1197.96926000657,1094.25077807195,870.895865898472,897.473482028844,1474.5934417541,1546.66424338699,1823.03716048107,1268.2704873678,1524.05281284353,1502.54469787268,1511.8613812055,1386.67463395198,1388.66346346201,1236.79267206464,1249.65659456514,1171.33378527549,1589.34608213033,1413.45914717296,1647.1895360937,1310.1170548053,1475.26615581969,1416.17217886834,727.35671633965,540.870810100704,525.248187628228,1198.39785116223,903.544739273938,927.211831762621,989.595817110461,812.550503068521,1149.45936577547,1227.60038544173,1162.93382600963,1212.08790294437,253.092443485815,109.531187493191,100.45580174674,301.979817732857,308.968783948291,162.870213522026,838.334886589979,682.29033741635,711.163883892452,785.513476279923,891.129629338952,879.517969688374,390.100242243466,280.553675649839,225.015782229375,507.281983643474,406.57657592752,435.649297874105,589.223233327868,595.448588542832,664.51437359964,468.456794967272,128.156208624439,186.734095814714,438.6072870954,268.072692164783,268.349775804068,524.101926767457,505.225892888454,466.024001163475,762.970653749304,812.033632889652,947.63300184949
,92.5,1257.07699208167,1070.13600517192,1342.63975449169,894.029246181549,784.778927983493,766.045126396618,374.597458281312,420.342435772791,286.027958592754,90.6335846480509,106.02742379142,115.818786788488,1173.95657856291,1136.21057526416,1210.80207766258,839.78706157513,744.606654132459,804.951821402406,58.1654946815167,94.8302331273075,66.2085058045864,158.638813756101,94.781222144091,120.965779826405,1135.39852105966,1170.553032458,1099.17079211087,791.012142071206,759.823026800843,771.656228087269,714.611173664651,545.604324928461,571.075196683645,994.071389005764,1030.3349552672,1245.22705483923,793.744804052955,968.145601746305,948.249603421622,1335.21546424684,1257.91757188956,1250.61929760091,824.991982505734,823.298070330139,756.633753536123,1118.08740394973,987.796135151466,1176.81280265811,829.629348659132,927.155544239261,874.299381383431,421.952495337589,306.756690819703,295.443289204771,731.440794857155,504.114462188658,499.675156910188,572.230277188948,455.248523195091,693.62920319169,763.293648479972,713.033237638063,745.843263666422,112.243752162629,74.1127251297254,71.6382386182821,112.756758413382,112.71667747741,61.7854747986748,543.247458295685,425.44241215553,455.544218649935,493.180106221094,541.074778957331,525.957766795225,146.71422252851,94.726941752147,76.3846175259439,298.362521284871,241.342762188936,257.056921087265,378.569658523576,379.69947869032,431.105778151047,293.068793731266,78.0496175843883,129.655012876046,242.650783896754,134.031329702879,134.754767430033,329.085158143789,317.09669165666,290.413014445752,430.347005484908,456.534993700193,544.589201684131
,93,685.729377430414,567.5102129011,735.982916026187,547.166731694765,463.819071217675,454.873110188032,225.548989734903,243.426989588801,172.998595873828,65.8255124964978,78.4690446908005,85.2161915663544,613.05588700253,587.93082298021,629.151788644152,536.525350109972,463.042729295034,500.193027546334,41.2308236210248,60.6820093127604,44.8808508239191,72.2011630517784,48.1434450072552,56.2568457591518,595.001991580134,596.298425730183,552.74028223295,473.973598458343,448.754823310037,453.415246216131,420.718712470224,298.104428650477,321.885651113738,601.178295133598,596.895829521109,751.450270037393,380.019517387135,482.149860949237,465.45281364157,1054.76240092382,998.336946469282,988.15005514756,496.765957772255,495.424271263644,443.245761835425,736.905067688071,641.241990384909,780.827529053707,412.952574984686,453.580662356198,413.515214653872,250.676733627625,190.311182690006,183.571495162091,378.427193516886,236.659977596652,227.768403293661,248.775292652999,184.729765893907,328.299273317401,368.12283673615,331.647277466648,351.044398912922,73.4659772717146,49.417985310264,49.2903984176046,67.4993429194769,62.640131361688,54.5079019603629,316.571430302163,232.263818288202,260.59746859372,245.523415091836,249.515850166294,234.149796811882,49.6697349152399,46.6781859076739,44.9268234734504,164.366472875787,135.146271317474,142.35362588664,231.633500029423,226.499415481572,268.580642367901,145.455816902362,47.6302458941524,76.737743199554,121.135720126061,65.7336875626628,65.6602032493902,210.526511687392,203.846279877636,183.31775901521,231.483339424989,244.929228719995,293.076144719518
,93.5,221.15658196651,174.881124204306,241.727298890396,300.318240021458,239.70731615464,237.952333051199,132.852452782546,146.876369309319,97.6163106703433,45.7373968265975,55.7265823596367,70.4227850889612,183.91567529808,173.82166955114,189.573742236698,324.939242745597,266.846367152932,289.641657452585,30.9172110377759,44.3468231713953,29.8026420794239,34.1034237606734,31.8721723951336,30.2122357890845,179.673082286982,169.50860421428,157.171958725938,256.236808029535,237.560087905861,235.827460554405,203.585677124172,119.974028555611,142.68863650391,331.777653264864,291.165271273419,387.113632045314,96.8036329429417,137.10468004955,129.088781439803,721.839747103006,672.057259967251,664.789823648395,299.506816479878,303.931018998191,264.662757287582,463.387228029421,390.612273646106,484.870584183563,118.33715714106,124.23768357048,104.922602783481,166.331697130229,124.781435784938,120.25908325617,180.586733764702,120.840201913116,117.156454354444,81.2576029795315,61.9544175577679,112.099804946375,99.0628374721775,81.2980562513056,96.7533600709633,49.0905015078104,35.745927734947,36.1002874198463,59.3620553406633,54.6402239244412,46.1845380560857,151.324638184293,102.619729189553,122.117190110158,73.5458325266368,60.6754897716415,54.5158084591658,36.4237161109718,38.3313749893168,34.425633710939,86.5495483766692,77.5539672825078,80.1365511040453,111.709582304362,105.245164572555,138.617796885382,43.0327785545369,25.1527094579197,38.6821148749995,58.3162146811849,37.3138821065278,37.0641787060661,126.990527193248,120.896370021972,102.029474308662,131.148025803751,139.962840519353,164.496278550439
,94,20.2871010702896,19.706610837649,24.7056671632463,158.506549199305,116.176780493295,119.592748817867,73.6679654529892,90.8133045206195,49.1873507582208,34.1251642867501,43.194999022173,63.2769064783271,18.0170438382467,16.7519058194474,21.2445053421767,197.803809173031,150.261268188667,163.750905561134,25.7163381490202,36.0934569074996,22.2235219884825,26.4435347350518,22.639510390929,21.2108891625751,17.9324940644285,11.684309017524,17.319478288649,143.353291487142,120.515238825605,122.13218737111,66.3083669815366,38.6233263892198,50.2496533554308,227.172773943752,161.738319892821,202.340809152498,6.76233918517357,18.3326972107189,17.4246023385257,504.725039067552,482.311318344229,472.827201615975,220.558659919672,228.890455063749,198.435862510956,337.83244319664,274.397417270459,323.476811829556,17.6955672874585,14.3425074237409,9.91291906914023,110.524130058912,73.2387615775574,70.5598605795049,122.872970074287,99.2974928361571,92.4744739055468,53.0015194336229,51.0575625403789,60.3747551544759,13.1595105103081,7.55573892557902,24.6257748791936,38.6117162835415,31.3818418979574,31.6572064313305,52.3729832872374,48.0787932671897,41.1814615739752,75.0989959701109,54.4080339539313,62.2496837793635,16.7686828695056,5.50872569236992,8.10555243791566,32.1404523895067,33.0594064573672,29.4665350849465,56.137502456501,58.4850378678417,57.6602300877435,42.6143248456907,40.8248952162759,54.4807931709945,9.29824972065251,16.9194184247443,21.3636004459211,35.8180058000463,27.7454551440047,27.2036554531486,70.8223913592266,66.3066684001477,54.1232966444214,92.6952784098246,98.9059719812843,110.122901281242
,94.5,11.2768395796887,16.0282600861243,11.6288371277187,104.800742040478,67.4890055724344,74.0027308740794,42.2074005009911,57.4729507443179,33.0515786504978,23.4442363138123,31.6932973206477,68.0628373851006,17.3562912183144,14.6683393450966,22.8967366792218,135.03514903484,97.7728834544197,107.129782288,24.9078224758543,33.2075338544071,19.2793082376539,19.1549433110613,17.7374080127966,14.0936604206775,17.8364270905151,13.5469572633825,19.9990776818145,106.936931346109,85.0680114828828,87.7566025664769,23.6125203818616,20.3606260781514,28.5052174520229,191.447367891307,127.9492631996,150.94665081371,14.1410782546906,26.1104619092677,23.4974203601849,254.23000049438,232.318182639713,227.552477746702,162.85682279093,163.748829491282,143.476446336761,299.119750444784,241.112822430622,265.793256809122,26.0771757712348,21.9613718132784,18.0055182242496,67.0685683664796,49.3035493399225,45.3866181492476,101.932075191047,82.9086060027619,71.6820775246642,48.6064404305789,46.6854338158563,58.2635430653174,21.1287971578697,14.8727807391605,23.6514753854976,39.4446643909021,28.7227744864415,28.6456990096949,47.059051231971,42.488333460376,36.9629880537916,57.0568768778584,45.12051422504,53.8330113494278,25.4262844656029,11.158052038849,13.4715741883814,30.6735804300847,30.8251335099988,28.1177687900546,43.7212088083112,42.9809606326941,46.1022431461629,20.9475208383698,31.6644561007653,28.3298657858629,12.2143183416941,18.7845606253767,14.7736653877635,26.0556018257686,22.2977523328678,22.7704690412237,44.5603688299681,43.5515514866473,42.6828611395578,70.2482897092539,78.1541858118347,84.4513545152547
,95,3.62891603449896,5.19991069531773,4.03602284707631,39.7303353000863,22.2211704149194,25.2762403541403,14.2980957037601,19.4249996983443,14.4338953572527,6.54284630748225,9.50350680321674,32.9744209384036,6.32739514558591,4.51944878490292,10.3574227325031,46.4255587609869,34.1180791862108,37.9144240848104,11.0831479428828,13.8068491239526,7.8758035912125,5.56860177102499,6.91118376712529,4.17636076390068,6.76820149945274,4.88088958794981,7.15998347825052,41.6694354778194,34.5068080020718,34.5402476044924,11.2378952812747,4.86887307914435,11.5452740460182,71.1258490331006,48.7472341644923,61.3201520088141,6.55357069309468,12.0121271669742,9.63101961368091,16.3830230165463,2.45349866865956,3.57795218424326,49.7848518412344,48.2051359692865,42.5062223389987,120.147347882318,96.927417108653,107.261561566971,12.0461247974474,9.64833205943046,7.0862413425067,18.9548392893238,18.9363358860187,16.3119342346808,34.6238509390419,31.4277515703395,25.3842804432052,18.038208527415,17.9129787294549,22.3666886411922,9.30905630518396,5.93332378648927,6.24777651091472,17.734095267462,11.2775595188689,11.1432354220269,18.026532795098,15.7737549927256,14.1934621101639,20.3185305465139,15.7906819820799,22.1329166117014,12.8389285020754,4.59760758810819,5.39207168912105,13.0449580621539,12.3638779729483,11.6929446738524,15.2400435701117,12.2206201028617,16.3797929095449,5.67611923087281,14.6861450944572,12.0515753321522,5.34950556878937,8.30513897716253,4.79702808775778,8.59403645311261,6.96400727543698,8.20787981924775,16.095881415312,16.1119532474012,18.2947053213849,23.512892053204,27.9328126594222,29.9413980075021
