,Temperature,A1,A2,A3,A4,A5,A6,A7,A8,A9,A10,A11,A12,B1,B2,B3,B4,B5,B6,B7,B8,B9,B10,B11,B12,C1,C2,C3,C4,C5,C6,C7,C8,C9,C10,C11,C12,D1,D2,D3,D4,D5,D6,D7,D8,D9,D10,D11,D12,E1,E2,E3,E4,E5,E6,E7,E8,E9,E10,E11,E12,F1,F2,F3,F4,F5,F6,F7,F8,F9,F10,F11,F12,G1,G2,G3,G4,G5,G6,G7,G8,G9,G10,G11,G12,H1,H2,H3,H4,H5,H6,H7,H8,H9,H10,H11,H12
,65,21707.9506112478,19871.2603324859,22958.2811570593,19287.7995070469,18684.1821309379,18378.7056723755,19527.1035459328,19552.7336261145,18289.0155161415,19251.891258755,19264.7360563701,18237.4507404791,21852.9173595794,22296.2096417688,22400.9338454444,19739.6740874343,18350.4571302701,20370.0790002749,19510.9367780466,19129.2395957315,19829.9427464503,20004.275197552,19489.9238400171,19316.0434133989,21962.8741292441,23755.9048026091,22352.5894582856,20244.8099353588,20926.5003165189,20157.9561580593,20180.7764881292,19726.8803377668,19400.9290889588,22066.29531551,21066.1984953347,21244.932310298,19551.4682458515,22037.4452748694,22120.7403241857,19970.4666150942,18657.8580612745,18670.0886390832,20665.9841585792,22126.0701756593,21613.8468425677,22197.2796022832,20336.6183784081,21156.3719928781,20586.6446338179,22639.4254274494,22776.8678412387,21660.3680076651,21917.1017384604,21583.6445990329,21886.1192691419,21204.079282326,23051.6498210022,20395.0463549438,18719.054869854,20777.0191356739,21523.1834283877,20997.062846836,22195.5769499772,21205.5198743068,22124.6456579889,21290.8281728363,20932.0074775502,20688.3853656111,19291.0971457664,20614.7006310692,19976.7141170658,19181.4551823506,19158.2803310663,19679.6955763614,20562.494256729,19578.0032085154,19809.3991966711,20408.8578560123,20714.8507051197,19383.4659449779,19758.7995541306,19831.965151279,20399.6874737619,19675.8442334746,17797.5773137494,12362.7909714839,13585.3147244174,18326.060350486,19422.2907044932,18650.4171245941,19681.3237499435,19463.2208800065,19902.597076999,20121.876783697,20536.2868328213,20602.569675143
,65.5,21652.1094990735,19781.913606399,22864.3818564638,19300.0315725961,18673.8382393924,18383.1322202029,19559.1499029783,19571.4997386578,18291.2674316292,19273.5847101825,19307.2586845614,18254.136620888,21785.3384389484,22203.7257051119,22370.8792109135,19784.9866537338,18363.6493251583,20394.6527533229,19536.9026555632,19169.647100268,19860.4895415004,20009.1112004307,19492.9771924239,19336.8682222856,21909.4403962298,23658.4449717711,22332.0186400611,20272.8194581828,20958.7940835449,20194.5411034807,20188.0640924208,19714.158617768,19370.8780926994,21995.9517390816,21007.5574704125,21248.4494905808,19440.8799740613,21943.676452242,22014.68671336,19974.7707268535,18598.5764077527,18613.5005902615,20685.8255815865,22103.6498484633,21576.1261803259,22170.902822282,20278.7565581631,21133.9896479802,20490.6791662321,22528.3416883127,22669.5100246904,21654.6001300696,21909.9059736609,21577.3453730522,21920.4301394469,21186.8519788331,23027.6701058177,20446.8168678398,18749.6770595841,20830.985874795,21420.7719219155,20886.9129530445,22085.1749575892,21208.7689056614,22104.3260570816,21290.5806164079,20965.9743995713,20697.9724118853,19287.7657571902,20654.3147103397,19999.0272241264,19201.6868371893,19050.7325709151,19570.7662799397,20436.5179155134,19599.467762045,19848.5374532929,20448.1055346915,20753.7828893354,19428.9615708006,19805.4755115481,19885.6773390713,20446.2660216058,19729.9473401174,17654.5025087346,12217.1290092121,13439.6504558268,18370.0306526526,19457.4109359419,18706.4874812347,19708.1155978073,19490.873531852,19916.2024455484,20124.3856730109,20550.2234401604,20641.1262837071
,66,21596.2683868991,19692.5668803121,22770.4825558683,19312.2636381453,18663.4943478469,18387.5587680304,19591.1962600238,19590.2658512011,18293.5193471168,19295.27816161,19349.7813127527,18270.8225012969,21717.7595183174,22111.2417684549,22340.8245763825,19830.2992200334,18376.8415200464,20419.226506371,19562.8685330797,19210.0546048046,19891.0363365506,20013.9472033095,19496.0305448308,19357.6930311723,21856.0066632155,23560.9851409332,22311.4478218367,20300.8289810068,20991.0878505708,20231.1260489021,20195.3516967125,19701.4368977693,19340.8270964399,21925.6081626532,20948.9164454904,21251.9666708636,19330.2917022711,21849.9076296145,21908.6331025342,19979.0748386127,18539.2947542308,18556.9125414399,20705.6670045939,22081.2295212673,21538.4055180842,22144.5260422807,20220.894737918,21111.6073030823,20394.7136986463,22417.2579491761,22562.152208142,21648.8322524741,21902.7102088615,21571.0461470714,21954.741009752,21169.6246753401,23003.6903906332,20498.5873807358,18780.2992493142,20884.952613916,21318.3604154433,20776.7630592529,21974.7729652012,21212.017937016,22084.0064561742,21290.3330599796,20999.9413215924,20707.5594581596,19284.4343686139,20693.9287896103,20021.340331187,19221.9184920281,18943.1848107639,19461.8369835181,20310.5415742978,19620.9323155746,19887.6757099148,20487.3532133708,20792.7150735512,19474.4571966234,19852.1514689657,19939.3895268635,20492.8445694497,19784.0504467601,17511.4277037197,12071.4670469402,13293.9861872362,18414.0009548192,19492.5311673907,18762.5578378754,19734.9074456711,19518.5261836975,19929.8078140978,20126.8945623249,20564.1600474994,20679.6828922711
,66.5,21540.4272747248,19603.2201542252,22676.5832552728,19324.4957036945,18653.1504563014,18391.9853158578,19623.2426170693,19609.0319637443,18295.7712626045,19316.9716130374,19392.303940944,18287.5083817058,21650.1805976864,22018.757831798,22310.7699418516,19875.6117863329,18390.0337149345,20443.800259419,19588.8344105963,19250.4621093411,19921.5831316007,20018.7832061882,19499.0838972377,19378.5178400591,21802.5729302013,23463.5253100952,22290.8770036123,20328.8385038308,21023.3816175967,20267.7109943235,20202.6393010042,19688.7151777706,19310.7761001804,21855.2645862248,20890.2754205682,21255.4838511463,19219.7034304809,21756.1388069871,21802.5794917085,19983.378950372,18480.013100709,18500.3244926182,20725.5084276012,22058.8091940713,21500.6848558425,22118.1492622795,20163.032917673,21089.2249581844,20298.7482310605,22306.1742100394,22454.7943915937,21643.0643748785,21895.514444062,21564.7469210906,21989.0518800571,21152.3973718472,22979.7106754487,20550.3578936318,18810.9214390444,20938.9193530371,21215.9489089711,20666.6131654613,21864.3709728133,21215.2669683706,22063.6868552668,21290.0855035512,21033.9082436135,20717.1465044338,19281.1029800376,20733.5428688808,20043.6534382476,19242.1501468669,18835.6370506128,19352.9076870964,20184.5652330821,19642.3968691043,19926.8139665366,20526.6008920501,20831.6472577669,19519.9528224461,19898.8274263833,19993.1017146558,20539.4231172936,19838.1535534028,17368.3528987048,11925.8050846683,13148.3219186455,18457.9712569857,19527.6513988394,18818.6281945161,19761.6992935349,19546.1788355429,19943.4131826471,20129.4034516389,20578.0966548384,20718.2395008351
,67,21484.5861625504,19513.8734281383,22582.6839546773,19336.7277692437,18642.8065647559,18396.4118636852,19655.2889741148,19627.7980762876,18298.0231780922,19338.6650644649,19434.8265691353,18304.1942621147,21582.6016770554,21926.2738951411,22280.7153073207,19920.9243526324,18403.2259098226,20468.3740124671,19614.8002881129,19290.8696138776,19952.1299266508,20023.619209067,19502.1372496446,19399.3426489458,21749.139197187,23366.0654792573,22270.3061853879,20356.8480266548,21055.6753846226,20304.2959397449,20209.9269052959,19675.9934577719,19280.725103921,21784.9210097964,20831.634395646,21259.0010314291,19109.1151586907,21662.3699843596,21696.5258808827,19987.6830621313,18420.7314471871,18443.7364437965,20745.3498506085,22036.3888668753,21462.9641936007,22091.7724822783,20105.1710974279,21066.8426132865,20202.7827634746,22195.0904709027,22347.4365750453,21637.296497283,21888.3186792626,21558.4476951098,22023.3627503622,21135.1700683542,22955.7309602642,20602.1284065278,18841.5436287745,20992.8860921581,21113.5374024989,20556.4632716698,21753.9689804253,21218.5159997252,22043.3672543595,21289.8379471229,21067.8751656346,20726.733550708,19277.7715914613,20773.1569481513,20065.9665453082,19262.3818017056,18728.0892904616,19243.9783906747,20058.5888918665,19663.8614226339,19965.9522231585,20565.8485707293,20870.5794419827,19565.4484482688,19945.5033838008,20046.8139024481,20586.0016651376,19892.2566600456,17225.2780936899,11780.1431223965,13002.6576500549,18501.9415591523,19562.7716302882,18874.6985511567,19788.4911413987,19573.8314873884,19957.0185511965,20131.9123409529,20592.0332621774,20756.7961093991
,67.5,21428.7450503758,19424.5267020515,22488.7846540818,19348.9598347927,18632.4626732104,18400.8384115127,19687.3353311601,19646.5641888312,18300.2750935797,19360.3585158923,19477.3491973263,18320.8801425234,21515.0227564243,21833.7899584843,22250.6606727896,19966.2369189319,18416.4181047107,20492.9477655152,19640.7661656296,19331.277118414,19982.676721701,20028.4552119458,19505.1906020516,19420.1674578323,21695.705464173,23268.6056484192,22249.7353671633,20384.8575494785,21087.9691516486,20340.8808851661,20217.2145095878,19663.2717377729,19250.6741076611,21714.5774333679,20772.9933707237,21262.5182117117,18998.5268869004,21568.6011617322,21590.4722700573,19991.9871738906,18361.4497936653,18387.1483949747,20765.1912736159,22013.9685396793,21425.2435313592,22065.3957022769,20047.3092771828,21044.4602683889,20106.8172958889,22084.0067317661,22240.078758497,21631.5286196875,21881.1229144634,21552.148469129,22057.673620667,21117.9427648615,22931.7512450799,20653.8989194235,18872.1658185048,21046.8528312792,21011.125896027,20446.313377878,21643.5669880372,21221.7650310802,22023.0476534521,21289.5903906944,21101.8420876558,20736.3205969821,19274.4402028848,20812.7710274219,20088.2796523686,19282.6134565445,18620.5415303103,19135.0490942534,19932.6125506511,19685.3259761632,20005.09047978,20605.0962494088,20909.5116261982,19610.9440740913,19992.1793412184,20100.5260902404,20632.5802129815,19946.359766688,17082.2032886749,11634.4811601247,12856.9933814641,18545.9118613188,19597.8918617369,18930.7689077976,19815.2829892625,19601.4841392339,19970.6239197459,20134.4212302672,20605.9698695166,20795.3527179634
,68,21372.9039382014,19335.1799759646,22394.8853534863,19361.1919003419,18622.1187816649,18405.2649593401,19719.3816882056,19665.3303013744,18302.5270090674,19382.0519673198,19519.8718255176,18337.5660229323,21447.4438357933,21741.3060218274,22220.6060382587,20011.5494852315,18429.6102995989,20517.5215185632,19666.7320431461,19371.6846229506,20013.2235167511,20033.2912148246,19508.2439544585,19440.992266719,21642.2717311588,23171.1458175812,22229.1645489388,20412.8670723025,21120.2629186745,20377.4658305875,20224.5021138795,19650.5500177742,19220.6231114016,21644.2338569395,20714.3523458015,21266.0353919944,18887.9386151103,21474.8323391048,21484.4186592316,19996.2912856499,18302.1681401434,18330.560346153,20785.0326966232,21991.5482124833,21387.5228691174,22039.0189222757,19989.4474569377,21022.077923491,20010.8518283031,21972.9229926294,22132.7209419486,21625.760742092,21873.927149664,21545.8492431482,22091.9844909721,21100.7154613685,22907.7715298954,20705.6694323195,18902.788008235,21100.8195704002,20908.7143895548,20336.1634840864,21533.1649956492,21225.0140624348,22002.7280525447,21289.3428342661,21135.8090096769,20745.9076432563,19271.1088143086,20852.3851066924,20110.5927594292,19302.8451113833,18512.9937701592,19026.1197978317,19806.6362094355,19706.7905296928,20044.2287364018,20644.3439280881,20948.4438104139,19656.439699914,20038.855298636,20154.2382780327,20679.1587608254,20000.4628733307,16939.12848366,11488.8191978528,12711.3291128734,18589.8821634854,19633.0120931857,18986.8392644383,19842.0748371263,19629.1367910794,19984.2292882953,20136.9301195812,20619.9064768556,20833.9093265274
,68.5,21315.2215727275,19250.6361156273,22304.5129047821,19367.8882013614,18605.9815429619,18407.8142764109,19747.5850718144,19675.6805004852,18299.5706700132,19402.9894752732,19556.3806515647,18334.9929482991,21378.4738318855,21657.8820278802,22204.3964775863,20056.5406987536,18434.5111672137,20535.6068969603,19690.2788008701,19400.526048223,20037.2561922852,20026.7700312123,19495.9549188453,19431.8669673769,21592.8167357747,23078.424961164,22205.2261083318,20439.1757233474,21149.4667084488,20409.914615594,20218.4473564237,19623.1247508305,19183.596116429,21573.9377904705,20656.5181271572,21264.7302504205,18778.5661664242,21384.2622102193,21383.4373172524,19992.2394080108,18232.1242672683,18259.896678584,20813.3221630441,21968.1244654786,21345.1266212579,22010.7631857916,19931.6968313744,21000.5119967957,19919.126820905,21865.2806283741,22031.6016898594,21614.6169927837,21866.1533029987,21534.1195664315,22132.7882872757,21075.3377616251,22877.035959455,20748.2639600488,18929.0581798038,21141.9859279791,20808.9709328173,20231.6088442434,21426.5178019782,21217.9320063474,21976.0945460127,21284.3655499975,21158.9047745887,20750.1287049399,19259.793674183,20887.5493633478,20129.1654861974,19312.8263073761,18398.3469830935,18921.2730432986,19680.6864973536,19718.2573441848,20074.8521358788,20671.2914798167,20978.0398438593,19690.1380693896,20076.1572634271,20199.2648759935,20720.1046887445,20043.8157633853,16771.0633063371,11300.69501092,12523.9869472267,18623.7938719325,19661.8650878551,19029.5218624201,19860.5850599046,19646.4398135252,19992.0936071378,20135.9252080964,20634.1567378921,20864.8842689526
,69,21252.4363999788,19168.915077166,22218.4791915488,19372.4492987464,18584.5021004373,18412.8304532513,19768.3305357007,19683.3641469244,18296.9600877746,19424.1824723339,19590.3070093574,18314.5642621773,21301.9487583209,21578.3963805643,22196.1347035604,20103.7999041718,18433.9413162437,20544.5323264097,19709.6271951724,19421.4953028038,20052.6355883074,20004.9690738675,19469.3515294021,19392.1000006037,21540.2395388566,22984.9162674322,22163.9932222082,20460.5173617501,21174.9488702477,20436.4703965238,20197.2595420848,19586.0890161165,19140.8299137997,21502.5031837461,20597.8285103281,21250.6073007888,18668.9125871622,21294.0900901494,21286.1969181026,19980.5763413947,18152.114512917,18178.6899043989,20843.2414473706,21941.0029012306,21296.2927014021,21975.1058877109,19869.4997268038,20972.1836613959,19826.0363440189,21758.0695983068,21935.0226883041,21596.2687578247,21850.0643022806,21514.1201982867,22171.856309712,21036.978022077,22831.2377269582,20779.6635618928,18948.6606476312,21166.6948339821,20711.4426999528,20132.2214643136,21325.9549523829,21196.4068054317,21943.400063731,21271.5302472526,21167.9071757686,20746.9368729507,19243.5443253643,20916.8450121796,20145.7050624266,19315.2376771057,18279.1324260445,18821.3461391291,19554.6829964521,19722.592145583,20097.8822106867,20686.319680753,20999.6311628467,19713.2010520269,20104.2087368523,20232.2052963251,20753.171572049,20072.5952739458,16583.8395780526,11075.9344971661,12303.1008370008,18651.7575022767,19684.5125050298,19056.5328484914,19870.1403987478,19651.514827764,19995.7812780829,20127.2175200012,20647.9829886271,20881.6532493759
,69.5,21175.3561644059,19084.9679232594,22132.4501443701,19371.1151337966,18558.900032688,18419.7284640749,19777.0189832543,19685.6848445598,18293.0457433011,19440.9284085399,19622.1460378739,18273.2455549374,21211.8516544886,21497.2646375431,22165.4046519484,20158.9291954056,18426.6424517764,20539.9983038743,19718.7747740488,19425.4129923298,20050.5479429347,19962.5545390878,19422.3194542994,19318.6629107906,21476.3648384649,22884.4829577564,22103.1519131481,20470.4613552889,21187.2616464837,20451.0038858765,20155.8439288617,19533.2130111003,19089.3046900494,21424.4605357113,20534.6682262501,21217.5910606127,18555.9004384061,21198.6521619937,21186.4683087532,19956.7082223277,18060.8099803677,18087.6923962357,20845.2861830962,21905.8290092476,21234.7886211677,21925.6485359859,19803.2315816485,20933.2078096054,19724.8200462858,21646.1124641697,21836.1049260783,21563.5307505855,21818.764362859,21481.0740223522,22172.0361931334,20979.8963424205,22765.35672312,20789.6093361634,18955.0568361813,21167.288279968,20609.7436677756,20035.5165498913,21222.7876967409,21152.5663706202,21895.7092223189,21241.909809544,21155.6241481969,20730.3799523497,19217.9669205081,20935.3230781475,20156.7906143448,19305.4660657552,18150.835277109,18723.0417645327,19426.9770662053,19716.1567061762,20103.94454241,20684.4812779458,21007.412528193,19719.5233473503,20119.0699124479,20245.9062257864,20772.4532054179,20084.2727997865,16377.1531093113,10819.693338105,12054.277232719,18668.9383311238,19698.2335518677,19066.1619565497,19866.5692771096,19641.3887098926,19994.0483212927,20107.5403085589,20655.9563706581,20877.9288825165
,70,21078.5940254112,18995.3419550732,22040.0635408679,19359.9655252266,18527.6763512729,18419.4693705774,19771.8878513406,19678.2104912593,18280.6581296,19444.3400085897,19651.2994046326,18211.9405805043,21099.6526119745,21405.7444118629,22104.5152538866,20211.51961937,18405.470940574,20514.8885967481,19710.6749904921,19406.8962572132,20024.5913581074,19892.1674202326,19348.048916376,19210.5911082965,21394.8034574047,22767.6914078012,22014.9340615623,20459.0796442477,21177.2903706392,20445.8929571522,20085.0015810697,19460.0472506542,19019.7520454915,21332.082551033,20463.0736900388,21158.384173012,18436.7547285497,21089.3699391772,21074.4640360717,19912.7372294769,17958.389566559,17985.1113074201,20812.5862562246,21851.8958281031,21153.4991829939,21855.4270528517,19727.9137271022,20872.9666959395,19607.5791192259,21522.8762896763,21724.6529854842,21508.7843780697,21761.1625022906,21440.2301572319,22125.5627587179,20897.1824962202,22668.8090657249,20772.0202758927,18940.648516439,21138.2911765543,20495.9897448851,19930.0243554199,21110.6575262598,21080.3911664619,21826.7532726696,21185.1285313758,21115.3012807324,20689.7593585443,19179.3916258155,20930.9452472709,20150.531670072,19279.8836010703,18011.2272721147,18619.8142212204,19289.9017941831,19691.9176228862,20088.8099552796,20658.1338112993,20995.0255986575,19702.2235149536,20113.2393052676,20231.1585586642,20766.9167563824,20070.0964995706,16152.4694895192,10538.7433196508,11782.6364339185,18669.2560339834,19696.0947672851,19050.6607704187,19843.2358278443,19610.961037891,19978.1292857039,20070.5839051313,20648.1308957524,20847.4071157858
,70.5,20957.6232933219,18893.1523870048,21929.8956689704,19333.486758022,18482.8940907845,18403.2060452588,19742.1305424708,19652.9055618793,18255.2932227202,19427.3795055565,19672.6845254572,18131.9980716022,20963.9849323387,21293.7642649597,22006.6810921007,20256.5037529821,18368.1314751472,20460.7764064078,19678.0348361777,19359.8929376654,19969.6664636102,19789.472555746,19239.8838530928,19068.3066826251,21295.9745701936,22626.5150264902,21892.4426465233,20418.043105445,21133.1918318672,20416.2355326497,19983.7339244026,19364.3848626904,18927.9300472152,21219.65980255,20375.7987780403,21070.9272249978,18308.0741306525,20958.2137473939,20942.1619782505,19855.1379322602,17841.0536503096,17871.9957909163,20739.7573664698,21773.1472258995,21046.7495930577,21755.1096457811,19639.668674113,20785.4685585412,19472.1606272081,21380.1684207748,21594.418184843,21428.0727826605,21671.4951184163,21383.4023101278,22029.8358200621,20787.8594044169,22540.7145785601,20720.0759478705,18898.0521503788,21077.3812646231,20361.8033847946,19805.9426943288,20979.5926109391,20977.3258371312,21730.3031676989,21095.1366834695,21041.404506789,20619.2724736919,19119.2581256499,20897.6921946714,20116.1911977668,19235.2151274101,17853.8995382894,18504.4869456223,19136.2157390274,19642.9568493455,20044.7902431965,20602.0553305328,20955.9232803583,19656.5376794357,20080.9962310907,20184.7859501528,20730.684639737,20025.9330011363,15909.3526975097,10241.9066374636,11496.3885656827,18648.509097181,19674.3633843965,19008.7949519224,19794.0002518589,19554.0387928831,19942.3241166983,20011.4368478724,20617.1066532912,20785.7530841181
,71,20809.0879597374,18775.9970662075,21798.0710241758,19285.7313228236,18421.3789195316,18363.4886520808,19681.3238788583,19605.8755520693,18207.7507015848,19380.3954272767,19676.4399825188,18032.3911211137,20801.7063710596,21153.6176921223,21868.9218493994,20284.8307607246,18310.2080648355,20377.1588238235,19612.8190362138,19283.8198871392,19882.6141315172,19650.2581392486,19098.6088723257,18898.2498802906,21178.2576939345,22457.9502038472,21741.4365008589,20344.8545054262,21055.5194182375,20361.0037985825,19850.7011484428,19252.4374888489,18808.6297296337,21082.3236991406,20268.6198462822,20953.4075368536,18168.7772975988,20802.50995552,20785.4377930411,19781.5249327656,17709.1156217241,17746.3092208695,20624.6957004042,21662.7091333265,20912.3287853937,21624.6382650085,19534.0966677239,20668.0188494896,19314.3682019841,21214.8902397704,21440.4281913967,21320.1297701167,21545.8515880527,21309.8724693294,21886.6283022076,20653.8219608491,22380.788882425,20634.0694665099,18824.3099620927,20984.4590169144,20203.8353367874,19658.8173248095,20825.9292989339,20843.7089212293,21600.662840822,20972.052248252,20935.9937198202,20516.513449968,19034.635717526,20831.8246062182,20052.7017273928,19167.7455622511,17677.8171118215,18369.7944779214,18961.1629953439,19565.7913789995,19968.4069757299,20513.3249134775,20886.8467233663,19580.8036160831,20017.4328189447,20107.0892863772,20661.5281022183,19953.1956607985,15652.1677021189,9941.69703547734,11204.5550747987,18600.8865137588,19626.5617509603,18940.2594592295,19717.5484615629,19471.2937343609,19880.262754834,19927.0191143855,20556.7153186156,20693.5579965635
,71.5,20636.259930685,18639.7326685551,21641.6740707981,19212.7072891273,18342.0589341174,18295.6210507698,19591.0691333466,19531.4937227047,18133.084032945,19300.3771760369,19657.612730053,17916.3096085911,20618.2247389696,20988.7901215338,21694.7213436476,20286.233711902,18229.2426078281,20266.6528454025,19518.7214577062,19179.7915458551,19766.0515657629,19480.0497875412,18925.9331803882,18707.0210283306,21042.1017653339,22264.3568520454,21567.8676204096,20242.068804934,20946.110423463,20293.8430058858,19691.877132612,19122.7349275227,18660.3377358319,20920.9862318048,20139.1545256589,20810.1975023441,18019.0392464997,20623.9582246063,20602.5813069923,19689.9034253086,17564.0533493174,17606.2248750737,20470.4800412432,21520.7238391714,20751.0976326448,21467.1315009717,19411.8290897422,20525.0335889861,19136.9957444887,21026.8645045015,21259.7788742165,21197.5935662252,21389.337125268,21218.9243984439,21704.4281057167,20498.2524657496,22197.4956854729,20516.5691077501,18721.7076042477,20864.6858713793,20022.1419309867,19487.354685073,20644.7013006019,20683.5537877143,21439.9776452591,20819.5725744033,20803.2499839117,20381.0115258329,18923.7200524555,20734.0313538792,19957.9983011945,19075.3721900164,17483.4589374788,18212.7388341764,18764.6485278378,19460.2818195252,19859.9717918252,20393.216857047,20787.4777951347,19476.6795886434,19924.8722386601,20000.4758713898,20562.0909116735,19855.0566132863,15385.9076882783,9651.83484806803,10918.2583089807,18524.1398805369,19550.4344750133,18846.6105400586,19614.608418796,19365.0686194239,19790.6893709939,19820.8237254315,20466.3487078377,20576.7505151681
,72,20445.6057841061,18487.1516583091,21461.861774972,19117.2788014047,18240.6481756558,18197.4041985541,19475.2145719356,19432.1471186514,18030.1391606984,19192.9205776701,19614.7160155157,17788.692233562,20418.540748158,20798.6108553749,21497.9815679568,20239.5101730258,18125.469721159,20132.4854987475,19399.2474463376,19055.5928123432,19627.1051082427,19285.6240228212,18728.3941973328,18502.055953583,20891.0037739709,22047.441356944,21372.9062719651,20113.3187844983,20809.2212617558,20216.9281101156,19510.9416595098,18979.4345311923,18485.4895598214,20738.9821676717,19988.074808683,20647.4166833318,17857.4110206245,20424.3893756934,20397.8994653678,19582.9513513688,17406.8414511002,17452.0719460791,20294.1850104814,21351.4256326741,20569.5493165087,21286.8742926671,19269.1586551119,20357.7948561076,18943.1466232111,20818.6163960935,21055.2902105336,21066.1971925819,21208.6671606337,21114.6771000239,21501.8543649805,20331.1190444113,21993.9191867154,20375.0140380082,18594.2038803468,20723.4719745835,19818.9490117382,19290.7987550985,20440.8604410327,20502.2212248298,21253.093904568,20642.8913733301,20645.8297393695,20217.3272863194,18787.0601258417,20607.2474739268,19833.7430221584,18961.5947201506,17275.0430149109,18033.35730601,18547.9850667729,19328.5979917761,19724.9713017369,20248.2582619015,20661.7185230531,19347.5733195087,19805.3679178568,19870.3554845541,20435.2628320989,19736.1625619296,15116.3112145165,9382.04136242867,10645.5935932698,18421.4974466952,19447.861998409,18729.6881824561,19488.2848861922,19236.0120876579,19676.0060009368,19694.4776898148,20347.697382473,20440.5647208751
,72.5,20241.7060530967,18320.5547737038,21262.2988145497,19002.0671281714,18115.8021989413,18073.8750214061,19333.4899251091,19309.7894415899,17903.4766757045,19062.6909684623,19531.692769929,17651.9928020228,20208.4122890383,20588.6456865006,21284.1319697364,20152.2050577356,18003.2184858041,19978.7161849746,19258.4730264621,18912.800017844,19470.6792801249,19072.1428891777,18513.3365544004,18289.3188869711,20725.0385693257,21813.8305629407,21159.4122226275,19964.8670003201,20650.9827722484,20132.2156257103,19316.7217945516,18826.3879692123,18289.5856005347,20540.5810182208,19813.5258017015,20469.3607829044,17685.6676684398,20208.6457227233,20177.7170087697,19462.5291319666,17239.2869689127,17287.1417241324,20099.483706581,21160.5794968228,20372.5931450782,21087.8430989623,19110.6968157128,20174.4001853023,18738.4267495992,20594.3760486737,20833.2447575078,20931.095743434,21011.205092733,20973.118656906,21286.6263209096,20166.5142413181,21777.9859268052,20215.0944722099,18447.5473172446,20566.7506610582,19600.6568648703,19077.7667792677,20217.6190007341,20306.4441350989,21046.2735071217,20448.4091382918,20468.9515755186,20034.9303595901,18628.2785754719,20460.4543473549,19689.2395293829,18827.5223176734,17055.4606473704,17835.2668876621,18317.4112356558,19176.5694722267,19568.509313074,20084.2259152187,20514.8141410417,19201.5238632281,19664.4618259691,19723.1542070272,20287.6067262061,19603.5998849141,14847.6684201538,9137.48770664882,10392.546067549,18299.249698986,19323.2591180825,18595.2987693624,19344.3673288305,19091.8755666288,19539.760932979,19552.4429836377,20208.0395375203,20291.9226758259
,73,20031.3233256033,18146.4333006936,21047.4591412037,18869.3314139037,17974.3866316124,17932.9655937572,19176.9624817377,19169.6292515326,17757.0375239929,18912.265701852,19413.538319983,17509.0545781674,19990.2988868234,20365.6501666921,21056.2923621024,20027.2365027025,17865.9914724676,19813.4920585219,19099.0923220656,18758.9548494236,19300.7876885823,18845.3066161604,18290.2432709559,18072.6233513596,20534.3087976571,21569.8955773389,20930.7478401733,19802.7633037716,20480.1668580723,20042.5519646052,19123.7499311818,18660.4946544763,18077.9113183488,20330.5857887896,19624.1961130321,20282.0435847367,17506.2017721564,19983.0107420412,19948.81728483,19307.7556012666,17064.2690923848,17110.2883781624,19893.3364924383,20953.4196238607,20164.9664852338,20878.2332596165,18937.5497705894,19980.5542868431,18525.7665757945,20360.274739094,20596.708549426,20795.1391981342,20803.44806049,20804.8956826082,21062.6384773884,20005.0554410016,21552.6922630584,20042.0138724299,18286.4446804131,20399.1029220895,19371.0572685829,18854.639062099,19980.8952296323,20101.2340583796,20827.9909842624,20241.2454757158,20277.4741525897,19839.3122020281,18452.9772914196,20299.1908219423,19532.1611117625,18679.6629784149,16829.2850072598,17622.690219945,18077.4248230819,19009.1460526892,19396.5827979657,19905.6086953631,20351.6425079629,19042.5039520411,19506.8492293458,19563.0544401703,20124.5702474465,19465.4165617986,14584.2697880293,8919.88685243523,10160.71081355,18161.5368936032,19179.5496032923,18446.9320043549,19185.8387824376,18937.2172490951,19386.501115095,19397.7158484109,20051.8235498059,20136.1392897505
,73.5,19817.1481917577,17974.2862570257,20823.0483735349,18721.9556795919,17821.024214812,17779.5606536322,19007.9467223483,19010.0910286351,17597.034761036,18747.4223808089,19266.1232449561,17361.3410787098,19769.2313234281,20135.6909759582,20820.5361528472,19869.4412746856,17720.365333258,19638.799997223,18929.3314078992,18597.0981541813,19122.3686270208,18610.4516314957,18060.5464923795,17854.5364593648,20323.2981204303,21319.438503035,20693.0546847806,19631.2935827155,20299.7737775979,19947.2835613271,18935.4257855823,18471.8498440997,17855.1304631239,20114.4366027868,19422.3371834601,20088.4237273876,17320.6597274479,19751.0062226626,19714.3555283122,19122.7885472795,16882.6733818089,16925.4192131522,19680.8053551596,20736.6296755465,19950.6911367443,20661.0808404272,18753.8416715738,19781.2337761937,18309.1873858733,20120.1801214673,20349.0152081766,20659.2158637562,20589.7318516094,20611.8091830864,20834.5533230568,19846.8869908574,21322.0427434524,19859.7634555396,18116.8986996083,20225.4153634681,19135.017504418,18624.6705682483,19734.8357098652,19890.7748031429,20603.2398281938,20024.4491296252,20074.2664047979,19634.7269716425,18264.5785575247,20127.0264095591,19363.6791647283,18520.6097881059,16600.0093985093,17398.5838607104,17832.5276113908,18831.4902246259,19211.9817858257,19717.8575941248,20175.0992557093,18874.5531498059,19337.5383886459,19391.6202529357,19952.0753399016,19336.2952398356,14326.6562017053,8725.90210994676,9948.94085511868,18012.9853321916,19020.4926007255,18286.9795894489,19015.3949303289,18773.7849008998,19222.3430347362,19233.6240322383,19885.0922739707,19976.2397650885
,74,19599.3797145689,17807.8904677031,20591.1653958639,18562.5198596672,17656.7381487683,17618.8310878658,18829.8680872982,18839.3375957171,17428.9829775984,18573.3741799567,19097.7493895885,17209.456672216,19546.2759720913,19899.3725445087,20577.6842567603,19691.0962769861,17569.6481960294,19456.4080494666,18747.884968956,18426.9254531392,18937.3911114998,18371.1893271751,17828.4693488118,17633.3082940964,20096.9103148827,21065.1144327956,20448.5775369446,19453.430026241,20112.3000139495,19823.9547674375,18748.6455773951,18264.1309682495,17627.2146924848,19892.7125657486,19214.6407300793,19892.5106171974,17128.8420753484,19514.1274343633,19477.9452791865,18914.0014668708,16695.187008181,16735.0068839243,19464.4708226425,20512.6929056534,19732.634483873,20439.6799344565,18563.6310993451,19578.1403069839,18090.9953297201,19876.0142986846,20096.8475038104,20501.1347546369,20372.1874027484,20400.4775446618,20602.2716387431,19693.9144801653,21085.8039858602,19669.8724183332,17941.6409196514,20046.0531994885,18893.2162987406,18391.402076519,19485.4603249059,19675.9814822788,20374.2780109587,19798.7885205804,19861.3951117454,19426.7321231058,18066.2620153026,19945.4792420022,19187.9445464975,18353.6206259693,16368.5649801708,17167.3487451415,17584.84114813,18646.3222212676,19018.2053816226,19523.3334707309,19989.9515301317,18698.4639237476,19158.7115284799,19213.5652681575,19769.462881684,19218.2428040408,14073.945314443,8550.47317811761,9753.44256436281,17854.2752101723,18851.4608377688,18119.3490157784,18837.0871634186,18600.9399724808,19047.6368916732,19060.8044496225,19709.7665819499,19812.54020587
,74.5,19378.9922742874,17646.3648157953,20353.4221749095,18393.6631956709,17487.2989540608,17455.1320171856,18644.9629658195,18656.8661910719,17255.7430110079,18387.1781846779,18909.7858747088,17052.0651229154,19321.0280010263,19662.0278987446,20331.2773117747,19505.404258735,17418.1390527868,19268.3990469062,18557.4090275431,18251.3494217631,18746.5687497458,18128.8830413097,17593.2172432044,17410.2085697885,19858.075404462,20809.3096716876,20200.6547944782,19270.6154525196,19920.4074605123,19676.5701622693,18566.5743969912,18039.8341649623,17396.9463455204,19668.7175203357,19002.5223166616,19694.9495348621,16934.4107319799,19274.7488678171,19240.4997970693,18684.1189829119,16501.3709083031,16540.8242008766,19245.7735194568,20285.9770116582,19511.3357527865,20216.4536248091,18369.6659978008,19371.3969864294,17873.9010368497,19630.1082268125,19842.3576019906,20320.9149738801,20151.786858854,20171.5237856067,20369.0538424722,19538.5667714639,20847.5910704821,19475.9248625674,17761.1547292369,19865.4141450623,18649.6868932504,18157.7042244918,19233.6143817974,19458.3383740083,20142.4892823613,19566.4066084198,19643.8084515396,19214.9216280212,17864.1514171581,19758.1212001258,19008.3451781823,18180.0280308263,16139.0514378275,16932.7417585851,17336.3376357073,18455.9467641005,18820.0358657851,19321.6118073653,19797.7221006077,18517.9708961255,18971.6721434798,19030.7663446049,19581.1908556334,19109.5285949336,13826.8286498197,8390.08455893878,9571.43634441212,17690.6602002001,18674.5165019678,17946.1545595201,18654.5955270467,18423.3238254262,18864.2164905146,18881.6304750725,19528.833272839,19645.4083514526
,75,19156.4827396681,17490.6243866864,20112.5269966962,18215.2180104304,17316.1996149914,17287.6700510368,18456.0722063354,18466.8052772536,17078.7674476704,18193.644596208,18715.4537630707,16887.1928350206,19095.1839738574,19423.6884842324,20082.051446784,19314.303677444,17275.4894334396,19076.3525334552,18360.6472049615,18071.7900678107,18548.7873003434,17885.1202734383,17358.8700395497,17185.1584157573,19610.7373101056,20553.5877241109,19951.0140178216,19083.7513705569,19725.4838414039,19508.4405091595,18387.4573072334,17800.9069868497,17166.2081178704,19443.0948061771,18791.3437109281,19498.1151506677,16738.8890336828,19034.7652485933,19002.1481854155,18438.4543623461,16302.2113626714,16341.7652578531,19026.5536771394,20055.8564825846,19287.7493248098,19993.0866359692,18170.9314397178,19161.7947293407,17656.5693828968,19383.0950485826,19584.9485536847,20120.4189510379,19928.0370023752,19942.7876229541,20134.4614216546,19363.1774701207,20609.5646407293,19278.0516848822,17576.0391787084,19684.0767084944,18404.184904227,17922.5581722119,18981.7484345223,19238.379479368,19908.2266034755,19331.5451435673,19424.288933714,19000.4126037911,17656.7796441057,19565.3853968847,18824.0956890491,18001.8175859534,15919.3329175343,16696.3117828924,17087.3203810234,18260.7987915298,18617.2072466651,19113.9462439743,19598.5913657906,18332.0008877302,18779.314279291,18842.8993716152,19388.8717601503,19008.8569437706,13583.8046165505,8241.34068274285,9399.17486896315,17521.9194844596,18490.9876728106,17768.3639934675,18467.3758037072,18240.0880728542,18676.0803206848,18696.9572286182,19342.1135625613,19475.3464890088
,75.5,18931.0247421728,17335.0859965704,19872.4482755057,18031.2578238774,17144.0389823032,17115.9754612732,18261.9445827519,18270.8777920911,16898.0869807622,17992.8802251213,18513.2762625676,16716.3881852293,18868.722479468,19184.2790224913,19833.8586224302,19119.0815446083,17140.8799716963,18878.4641528144,18159.5876798285,17888.7562310056,18347.5608612948,17640.655320607,17122.6656340491,16960.7323047669,19365.293466444,20297.9847782486,19703.949163775,18894.087762803,19527.7052153148,19322.0054410156,18188.4747900439,17554.2732868708,16934.2546978243,19217.3047061756,18578.9312425258,19302.6862584987,16542.0717162651,18793.7814874151,18762.3813305836,18192.9846483042,16099.3794833395,16140.662865654,18806.6732223115,19824.2942803368,19064.1663789296,19770.2383310594,17970.8599975056,18951.9332957671,17441.4611205222,19135.8110700624,19327.9954416334,19901.1585001871,19701.9016214986,19712.8739642076,19901.782481025,19172.6672977151,20370.7184963801,19078.773617722,17388.7137017252,19502.0601354705,18158.8825834148,17686.3214972923,18730.8609932565,19016.4087136411,19670.7763454591,19096.2491088486,19203.4733110206,18783.905781721,17446.7281504575,19367.8107239375,18633.5731127942,17818.3616316246,15708.7853251927,16459.4576080837,16837.5157260434,18061.934695894,18410.2980123579,18901.4628647289,19394.0490421828,18141.9648589684,18582.1409038276,18653.3161141078,19192.350018863,18909.1311246947,13344.8772713253,8101.42393336633,9233.96571265053,17348.243291311,18302.8938153454,17586.9864980833,18277.0237129769,18051.9348287836,18482.9674019569,18508.4459530082,19151.7052724994,19302.7396072849
,76,18705.8141417479,17163.7022852655,19632.1641878333,17843.628417058,16969.3864557897,16941.3815329453,18064.1732391607,18073.1258932219,16715.6712167852,17788.2991592732,18310.0352372094,16541.6968578473,18643.729081683,18943.9826783878,19587.1449150803,18922.937829449,17010.4874696288,18677.377989742,17953.0415551769,17701.9167259331,18140.7259485239,17397.9852302911,16886.3813263036,16733.9204738176,19119.8783402999,20043.1043842859,19456.5672635414,18701.3302181159,19327.5520140292,19120.8527291801,17972.0707480929,17306.651560343,16703.5419283383,18990.6433785755,18367.3100350018,19109.9357748495,16343.0239604113,18553.3667490137,18523.2433584129,17947.3803006986,15893.627729038,15936.8303385734,18585.2376337468,19591.0505828356,18840.5641579255,19548.6538403921,17769.4222882085,18738.0656481893,17230.1615497876,18887.1154302915,19073.628032839,19665.477804107,19474.8271167678,19482.822052318,19668.1302506998,18967.6688806393,20132.5838169972,18876.961391104,17198.2498528361,19321.4306164483,17913.5751732516,17450.291297724,18482.2197395213,18791.7084517379,19429.5860749385,18859.6767873907,18981.8854048682,18562.8368423526,17235.7964586197,19165.9263976096,18439.2930688371,17630.8197780556,15506.4336439313,16224.7162561312,16589.7412178457,17859.7241286564,18200.4675597124,18683.4796951196,19185.3265771302,17947.4534663133,18380.8412570277,18462.0686214175,18990.8669253144,18784.0582742327,13108.8592567659,7968.99220626372,9074.67796082101,17169.9420029641,18110.7586689091,17401.9452705397,18084.7935529041,17860.6217553287,18284.7432213501,18315.3350706172,18957.4387738003,19127.0249904878
,76.5,18482.5961709404,16980.4491571678,19392.6649868182,17654.5381873214,16794.4816389632,16763.6642742771,17862.9606842587,17870.1720258267,16530.2892494977,17578.8428798005,18102.2203236282,16361.9830895742,18418.5834088116,18703.6121575244,19342.0566584113,18722.4270778154,16883.8644525167,18473.7057569182,17743.6904045755,17514.1734238439,17930.1492560735,17156.4004652939,16651.4092206676,16508.1639008499,18876.2453740649,19789.5739572712,19211.224221215,18505.5029057799,19124.7981143826,18917.0528122466,17743.2551640358,17060.4160594742,16473.0466655785,18765.1513345294,18155.5162966474,18919.5713060103,16145.2727993567,18314.640124029,18284.8504521373,17703.4827177974,15686.4181469804,15731.4791612796,18362.4921407926,19359.9486812493,18616.8821939126,19326.234040482,17565.3438414176,18523.1209384752,17028.7978294866,18639.1321104384,18820.208841763,19426.9935931695,19247.2433157799,19250.9683496966,19434.5687719714,18749.4474222273,19897.0487557889,18674.6475967041,17004.1650205494,19158.3206443492,17670.9713834096,17214.9164886201,18235.0798213979,18564.8953884194,19185.1407676574,18622.8389882796,18758.9849220848,18336.5342150729,17023.9954898743,18963.9256911384,18241.1938553623,17441.0415151418,15312.7439521442,15991.7635561513,16344.197148244,17654.3310702058,17988.5884276614,18460.7153524253,18972.7411593059,17750.924245471,18175.883082581,18266.5900181776,18787.7526781382,18633.4556931501,12877.3144828284,7843.03251640276,8919.84650600107,16990.0806715649,17913.3377596963,17213.7801900747,17890.2342553939,17667.8454549095,18083.6806085889,18119.1283323148,18760.6107328691,18950.1094153357
,77,18262.3785534233,16787.0227728628,19155.288178496,17463.702486967,16617.7383127604,16581.9983613122,17660.1415776658,17666.4632615368,16343.6734528719,17367.6868451948,17891.5153306062,16177.2009975823,18194.7661850496,18463.6686699292,19098.4039432471,18520.8109445422,16757.6436838733,18267.7138678418,17532.2651545465,17322.4886060803,17715.3071468462,16914.0545195425,16419.8528787209,16282.9162747716,18634.0840811157,19537.4138523494,18966.4304782526,18307.2379747394,18918.797114174,18710.9015957711,17503.2817043551,16815.2279737218,16241.5847810987,18540.4521393775,17944.7231182341,18733.1309317802,15947.7322709271,18077.483301184,18047.296131251,17460.8063201633,15480.0324252214,15525.2994605162,18139.1058170695,19127.2661506538,18393.0019069227,19103.0148868149,17360.9661105506,18309.6564094722,16834.9479998429,18392.4654510326,18569.5133077362,19187.3512973736,19018.5615855453,19019.2083436951,19202.0236448798,18522.1402984413,19662.2369346187,18469.0801005647,16808.5934864786,19011.349613269,17429.3227662247,16980.6298042016,17990.0508116243,18337.5239138968,18940.1997780134,18387.0212455767,18532.8934969446,18108.8176638628,16808.8933258307,18759.4081894072,18038.7201114021,17249.4966449874,15122.1037663437,15760.9510712798,16100.6555691445,17446.3016268594,17770.5609169179,18234.5874518842,18757.6510594427,17551.0929943264,17968.9825914607,18066.8031698484,18581.4687487507,18460.626432791,12649.0615336523,7721.30911220877,8768.74450223671,16804.5150738262,17710.3729213701,17022.1252937064,17690.5231258422,17472.3432498025,17879.4980697825,17920.9057550538,18562.2940946315,18773.7471821175
,77.5,18046.3845110778,16583.7310235454,18916.3908642647,17272.6524065053,16440.1434242633,16398.8465824914,17455.0785903527,17460.7241869399,16155.1778900717,17153.4726861884,17676.2494038887,15990.3264179417,17972.0923225749,18224.4199257378,18857.7608839525,18315.7022582173,16614.9163595667,18059.5220776743,17316.3516248439,17129.118569265,17498.8278040721,16674.2031291462,16186.7116502155,16059.1865968219,18396.2467007312,19286.9569935485,18725.0387479337,18106.8012958394,18709.2863758844,18502.391566284,17252.1087055581,16571.2692861594,16010.5536408643,18316.4540823727,17734.1363812138,18550.7819086387,15750.2653118322,17842.1620510438,17811.8756655381,17219.6186183866,15275.2002375689,15320.0431294121,17915.8874670352,18896.2561735334,18169.6247035959,18879.1773850784,17156.7048607057,18095.9772857224,16650.0259063754,18148.6877771785,18321.3698068631,18946.7888212656,18789.2063791024,18786.384308747,18969.7888277965,18297.5585035667,19426.1236617882,18261.7838484832,16611.5395186941,18878.0312422673,17189.5383821786,16747.3779484875,17747.0848273777,18109.8008152369,18693.2638323403,18149.2251707723,18303.3557308512,17878.2363742911,16593.5467295617,18552.9321230253,17833.5827216661,17057.2306707692,14919.7316602303,15532.2045485263,15859.4072969293,17235.2752123344,17547.3294234488,18005.1755528501,18540.5380931211,17348.0400341886,17759.4672317827,17864.5478338197,18372.815180694,18267.6729050085,12425.4602434703,7603.79793018264,8621.01972343538,16614.8519271752,17504.0265917572,16828.111977558,17487.8545155276,17274.3432230649,17671.2583099144,17719.8496111504,18363.1871283045,18598.0481639053
,78,17835.0276650266,16374.3734955003,18675.5811461418,17080.6509839489,16260.0108227725,16214.9563289128,17247.7417870144,17250.1754167194,15965.4301399492,16936.9427552078,17461.1472879587,15799.4730310562,17751.4597619722,17987.2258861446,18617.5744281652,18109.8445597693,16455.7782079961,17850.1990080052,17095.9267656229,16931.9494042798,17278.6265828099,16435.9070150546,15953.7236284171,15834.2576191183,18159.9764084968,19038.6990955959,18485.3373755138,17903.6950645074,18496.6440797207,18291.4110961708,17003.670942053,16328.4028584959,15780.2380962633,18092.2737044485,17524.7963230201,18383.3245105761,15554.2226478415,17609.6420808399,17577.9713876633,16978.7298213797,15071.4439876924,15116.2670784546,17691.8674412912,18666.2915124804,17945.2364785626,18655.2533508958,16952.099494145,17880.2127827126,16470.8151386849,17906.9348686691,18075.215069082,18705.7319976587,18557.4600163643,18551.4746090405,18735.6594207599,18072.6245461469,19192.1493365786,18051.3081266645,16413.5429687221,18756.5299145302,16952.904380915,16516.3904336498,17505.8756118349,17881.6900394611,18443.8955249786,17908.2616652539,18071.1063720822,17643.1200856748,16376.279989906,18345.9153000695,17627.9611347769,16863.4600840106,14708.0383658336,15305.7877774693,15620.9583544853,17021.1804507285,17320.4120452136,17772.6575521752,18320.8827151024,17141.9645432672,17548.1244381184,17656.7036374588,18163.4044283656,18057.6275316432,12205.8033076672,7489.84287583312,8476.71314324152,16422.1729892065,17291.2266037509,16627.8873372342,17283.3348462758,17074.4074453017,17460.7807257132,17517.2085323621,18163.7561483585,18422.8911968017
,78.5,17628.0446629581,16168.531616807,18435.6332946999,16888.3630045876,16077.1356644879,16029.6805557817,17039.6065580347,17038.359012101,15772.8873457096,16713.8672897855,17240.5080134005,15604.9523068798,17530.7977059808,17751.9403689186,18378.2591522656,17901.4799279117,16282.9178686448,17639.7364561824,16870.7250414462,16733.6377632148,17056.3046319294,16197.0782388479,15722.5612023995,15611.0626067412,17927.8716059035,18793.6424147898,18248.1837305258,17698.8132757584,18280.593996309,18077.0674196458,16757.0747390237,16087.1955617076,15550.4922399494,17869.4456392426,17316.7780369427,18229.842809533,15360.6716167862,17378.6036390468,17345.6045253231,16740.5800602335,14869.1916314575,14914.0474174048,17467.4257834602,18438.9255757317,17721.3730316049,18430.9369108139,16747.5882619234,17665.5945263136,16293.389819342,17668.5118475252,17830.9209523624,18464.977292227,18324.9155070724,18315.8948808691,18503.1013615828,17848.8716914317,18958.9137128034,17840.4536582513,16213.7682425443,18642.3117008195,16718.2605844568,16287.1339943649,17265.5418871685,17653.6234676796,18194.6313479947,17667.3732901788,17835.5563404699,17407.3556901992,16156.0850164609,18137.5776118697,17421.127557957,16669.4447483853,14487.0040381459,15080.9908332432,15382.6177069475,16803.6932321138,17090.3696834191,17537.9679183194,18098.336452581,16933.7371266645,17334.5194737856,17445.6338132481,17951.5073100517,17845.8092255146,11990.2627453391,7379.12443403364,8335.31715264389,16225.741050551,17074.4845157369,16423.8578762568,17075.6248958863,16870.179618706,17247.5846031147,17313.8905149883,17962.9392126952,18252.3713071629
,79,17425.6765002941,15963.5620220201,18198.2033111194,16694.6154045281,15891.1586802414,15842.8177676824,16830.514935631,16826.6224826778,15577.5733390489,16485.6170413659,17015.446777559,15407.0133170545,17313.6692565452,17519.8756777166,18141.5270312678,17691.6089802527,16097.533758676,17426.6960151705,16640.54967149,16533.4981655833,16828.4625649367,15957.966661947,15490.7626546703,15390.7078167623,17697.1173875415,18549.8553511502,18012.2440321547,17490.8953613395,18060.5561265207,17860.6842694293,16511.7075787488,15845.5246953093,15322.0449876711,17646.6149462357,17108.5308940403,18087.1195720274,15168.5121379309,17148.5004009439,17115.130199332,16502.7358999491,14668.338649148,14714.3048702929,17243.891309476,18211.6906291381,17498.0761046927,18208.7790159556,16544.7300564228,17450.5871812614,16103.3441180398,17432.562319942,17588.8785601492,18224.3467574245,18090.0580787067,18080.8802280893,18270.9948503155,17625.8957029262,18723.1032308972,17626.682089434,16013.5153657084,18503.3245886957,16485.1886617474,16059.8630105735,17026.2370656838,17426.1246492716,17943.9107480468,17426.628367301,17597.1570463656,17171.5072072093,15933.6193718845,17926.3851835787,17213.101164122,16473.0931445267,14258.0129829254,14858.1121050263,15146.6444613173,16582.8997378607,16855.4610406658,17300.2446447702,17871.8461575379,16721.5485558244,17117.7501364143,17232.7592686263,17736.7042040804,17631.9943109786,11779.0894491946,7271.13082295359,8197.40311581828,16023.5190124743,16852.5871770758,16214.0890232347,16866.0242684992,16662.9387927231,17032.0751655106,17109.0310987187,17760.910462838,18085.2808142647
,79.5,17227.4881960734,15758.6367069543,17962.3258612814,16498.6537340184,15702.5042422992,15654.4479995617,16616.9666334268,16611.9269192688,15378.8897519565,16252.0759101933,16784.9434985936,15204.4278814631,17100.0614052028,17288.7624393034,17906.714902722,17477.8905763782,15900.9146856021,17210.341797921,16403.129012412,16341.7874050237,16594.2090183266,15721.630483546,15256.6245307188,15169.9902256837,17468.4794658943,18308.3747876691,17778.5561443958,17279.5246717074,17837.2512648203,17640.6164318339,16265.1758693599,15605.0850363306,15096.1015208004,17422.8331175413,16900.4603951537,17952.1004643834,14978.4017267698,16920.9387421727,16885.7099135267,16266.8770096786,14469.5851915615,14516.0810704499,17020.853198001,17986.1520429093,17275.0004884519,17989.0504676018,16342.237469312,17233.7237905361,15902.777971863,17197.7970255242,17346.1838424913,17983.5253753559,17853.4116268389,17845.2700231842,18038.4527785673,17402.9155305903,18487.9601653991,17410.8136537805,15812.3573023539,18337.6529219986,16253.921689811,15834.0333613751,16787.945461216,17197.9845219324,17689.3822834482,17184.5009200122,17356.9530842561,16932.1997200469,15708.3667018011,17712.8490995228,17003.858744902,16274.3113389716,14024.241659433,14636.5244223252,14912.493408499,16356.9810740611,16617.8672178074,17058.5168243977,17640.9663185368,16504.6326825027,16896.4112635794,17017.8180417613,17518.7952778767,17415.2570514395,11571.8496431567,7165.94334304711,8062.50363016841,15817.1512153944,16625.7822575641,15998.1589234469,16654.6122130584,16452.6111882399,16813.3895413924,16902.3346870049,17555.7771579799,17931.588110202
,80,17035.3538509382,15553.6108498797,17731.0655474194,16300.3236043062,15509.0481418055,15462.9561648566,16399.6779204014,16393.8083686469,15176.8856575946,16009.1570469297,16550.3396070906,14998.2655677456,16888.6213741888,17059.2399978822,17673.3195258163,17260.6292663011,15699.9122135661,16989.4117717188,16158.8572464509,16156.505201739,16352.8080846965,15485.2522648028,15023.1268122338,14948.8726820525,17239.0919518019,18067.9933083478,17544.8114278303,17064.7183679512,17610.0770950844,17416.9219280714,16019.8788527837,15365.8178200524,14870.374139721,17199.428076244,16692.7766107503,17821.695996352,14789.9726818304,16693.4762129618,16657.6487331925,16032.5722883204,14271.6285306708,14318.8108605756,16797.4964572039,17761.7649968855,17052.6412453402,17771.521129695,16141.5111973567,17017.0802088311,15692.8884697121,16962.0519385129,17106.919776532,17742.6897424964,17615.5430158482,17609.5494481618,17807.7976597401,17177.5912529805,18255.0431879706,17193.0496828082,15610.6074996911,18149.5026601768,16024.9017736098,15610.3767814226,16549.5443671788,16968.5185355702,17433.2952025672,16941.9805622946,17113.1141251767,16689.3232945299,15479.7890702902,17495.9277774487,16791.7105527045,16070.2972586907,13793.1555997912,14416.2335321712,14680.2186058239,16127.0922825514,16377.4600837193,16812.1650887286,17404.2205978997,16283.2881424378,16669.1823535165,16798.9032792747,17295.8293980656,17192.6336371864,11366.5303830446,7062.72754198791,7930.80909816328,15603.1373749998,16390.0190522443,15773.0314789924,16439.6883594388,16238.2849789564,16590.3685713164,16693.3020531295,17347.0272040105,17787.9674696756
,80.5,16861.3173435537,15350.188915301,17504.3781777335,16097.7760816809,15310.4899272255,15267.0704074326,16177.2930330562,16174.7210973169,14971.4224221483,15759.0194825179,16306.6169432513,14787.8011965817,16681.4871511608,16830.9881548694,17442.8029051013,17036.4858107926,15496.1197587853,16763.3883239782,15908.9122464437,15975.7760414136,16102.8988297639,15247.6236662356,14789.1638968887,14728.2716224235,17011.1978173237,17828.5765049458,17311.7551156551,16845.9615173422,17376.887812555,17188.6679447887,15774.3286766703,15126.9031848129,14646.2817448584,16976.5520088581,16484.8894694546,17670.2809554589,14603.1411799046,16466.1661498263,16432.0903187555,15800.9455047044,14074.1549480297,14121.396460023,16574.9730946107,17538.1866017326,16831.0537668499,17554.807826699,15940.6957290344,16800.9760473441,15475.3941434222,16727.0915534037,16870.9330851431,17502.1567875188,17377.9035077686,17373.9543308764,17578.4424033121,16951.2641404664,18021.4779085616,16974.0889199957,15406.2785822342,17939.2439745697,15794.306200611,15388.4225113134,16311.7628248623,16738.656045599,17176.022834413,16700.2114740407,16864.6993157543,16444.7089712818,15247.6590172829,17272.3303461482,16573.892893221,15861.6016213958,13563.6206241281,14196.8007531697,14450.141606693,15892.7181598371,16132.5453944102,16560.7980476256,17162.7959169302,16056.1419095602,16435.0669898208,16576.6079741617,17067.2167276426,16965.8492621046,11163.2070477654,6961.77516203135,7802.3865193174,15381.1278969875,16147.570507156,15542.5575771406,16219.866304748,16019.1603107905,16361.1920018971,16480.5367851945,17133.4058636569,17652.8034903766
,81,16701.9387813328,15148.4672704887,17279.3524842028,15890.1874252824,15108.0347326072,15067.0636464217,15948.8727753106,15951.1393818448,14761.6496481107,15504.1760791253,16054.2174973254,14570.9012644688,16478.5108818691,16604.2138072555,17214.7399183636,16807.0526720661,15288.4522890467,16530.8747411371,15651.6684123024,15795.6477199569,15844.8726965932,15010.2528644706,14553.0693720321,14507.0796993505,16784.3144992055,17588.9509494165,17080.4008832847,16621.7319835828,17138.0529909179,16955.697770267,15529.1099835592,14887.8386330144,14423.0891357608,16752.9371304688,16276.3776267138,17497.0084309321,14417.393253031,16240.2150705761,16207.3319794196,15570.01934665,13878.5474637886,13925.0416012859,16354.3949266143,17313.1424224356,16609.912720602,17338.0501438038,15739.6986280153,16585.3556875808,15252.7634127869,16493.1185502861,16637.6793272431,17261.0674086133,17138.3762772065,17138.0045917852,17349.2755435274,16724.8375739123,17787.146727811,16750.461686025,15200.7305176347,17709.9728043418,15565.2528248971,15168.5143527214,16075.4315023265,16507.0439919046,16916.145157277,16455.3466752776,16611.1146247207,16197.185581534,15012.0750529124,17043.6952798875,16350.0549210947,15646.3977173996,13337.0847751726,13978.5846935281,14223.1955647784,15653.8262012657,15882.7386184696,16303.8677289309,16916.0321401355,15822.7097800771,16192.5558821232,16348.9940409987,16834.5812699413,16732.9201463479,10963.1207759124,6862.88818350814,7677.5463735039,15152.3293328152,15895.9789169975,15305.6015399039,15995.2968240423,15795.053125635,16126.4503618526,16264.2395515913,16915.2513921539,17518.0398599605
,81.5,16555.1751326739,14947.3912732723,17054.4361408676,15677.3506981611,14901.1366375562,14861.2675979363,15715.2392577502,15722.14039564,14549.4441553431,15243.85296514,15792.5344106125,14349.6355431767,16277.6171143443,16377.6767075291,16988.178406958,16571.2030093396,15075.0459445648,16294.8835683094,15386.9593383949,15612.4175298713,15581.3622741418,14771.2198207742,14312.6015034933,14280.511972227,16560.2870504769,17351.1011535041,16851.2534115466,16392.8178005885,16892.1298379683,16716.1008976252,15283.6060210704,14649.4214171833,14199.8715016778,16531.3011697705,16068.599162408,17304.68638248,14230.9555327774,16017.0811115424,15983.7843027396,15340.4326183886,13684.530916171,13728.1693085303,16134.3571797216,17086.4815560284,16390.0458246111,17122.0487793803,15538.8239302527,16369.0121121834,15033.5958081862,16260.8305519506,16406.6498551617,17019.5273944525,16897.2134053939,16900.6065451886,17122.33847608,16497.2391090311,17554.9823446147,16524.5313753381,14992.2339179628,17477.486462915,15337.4090805792,14949.6821285158,15840.3941332576,16273.1284416222,16654.0883073207,16208.0831148644,16353.1949248788,15944.6096281332,14771.8004904639,16807.5017489778,16119.0176906171,15425.6433095472,13112.5843502033,13761.878130619,13997.8260887884,15409.3753289656,15628.0114868068,16040.8092170088,16662.5446444468,15583.3531654,15941.9227642467,16114.9047348822,16596.0960510041,16495.5420346278,10764.9315025875,6766.35012823135,7555.80657233932,14918.020038856,15638.9972921848,15062.3748291914,15762.290386981,15565.509499681,15885.5262879376,16043.0812938544,16690.5033317194,17381.2999003039
,82,16418.4543644149,14749.4557423647,16831.6414794458,15458.669785296,14689.8362458392,14649.5180257031,15477.1154241849,15488.6747120683,14334.2876531082,14975.5206522683,15520.0134309328,14126.3575723087,16080.0208867031,16152.8819971461,16764.2418399529,16330.2559595442,14856.4000474122,16055.361529955,15115.4321092226,15404.681094331,15313.5871995984,14524.1371097791,14062.2378238212,14048.1387313202,16337.9510126821,17114.5682158805,16623.5251179072,16159.6294356592,16638.8736978638,16470.2543370891,15037.4083167518,14409.0996764854,13975.2600283964,16312.2623902712,15862.1126126664,17095.9566543918,14045.8408705416,15794.9066682813,15763.2014288864,15111.2254816728,13490.1914822158,13532.2589272445,15915.844206223,16859.4798056073,16170.3798031427,16905.3883464578,15338.2767243863,16153.9437051427,14817.5579068297,16030.9793506553,16179.227227629,16777.2310243433,16654.4082933224,16662.3247053107,16895.9747066441,16269.9291286799,17322.1998275586,16295.8466539567,14780.298404068,17241.5275463883,15111.6302859014,14733.0853146506,15606.6705950678,16036.4699835764,16390.0623593422,15957.50389687,16087.6373511723,15686.7765154583,14524.2413649928,16563.8988055478,15879.9080621008,15197.889140405,12890.2552316407,13546.3334974384,13774.3321831446,15159.2572451762,15365.6694054278,15769.0416512674,16401.0931966044,15338.6168738472,15684.8401416868,15875.7454282485,16352.5560520802,16253.0669268262,10568.8352321768,6672.16556809169,7436.92702832847,14677.6921004113,15375.7235559636,14814.4002398715,15523.839913673,15330.2440113046,15639.6122816024,15814.6928062941,16458.7018891682,17215.6984746486
,82.5,16287.2223325196,14555.1131379595,16609.565215023,15234.256083256,14474.0212441875,14433.1140074879,15235.9232245569,15252.8487276089,14115.4240254125,14701.0812768029,15235.3422136583,13895.6781641197,15898.0730755661,15929.5246307686,16542.1415231029,16084.2885463841,14634.1264041312,15813.6469707057,14837.344594578,15171.8340346868,15038.4702826694,14262.8027005724,13794.3744249339,13800.3437415003,16118.5099253658,16879.9206982091,16398.8601527986,15921.1000574887,16378.1906439678,16218.0951734167,14788.6707587156,14164.6310594592,13747.9339066619,16093.7778784051,15656.5060331722,16872.3259811772,13861.0198216128,15576.2506001061,15544.8046953417,14882.4917868786,13296.0959261397,13336.8779072212,15696.8206221522,16630.848108823,15950.4266627379,16688.5131999108,15136.4645111598,15938.8729253853,14602.8748493881,15805.0072087142,15951.9795940499,16533.9946373149,16410.2283743578,16422.6381956943,16667.9110066196,16043.7703288743,17086.555939059,16061.4769225512,14564.6332893282,16998.4339730009,14887.6525773277,14518.3701720056,15375.4444871154,15796.4449533383,16123.0411582229,15702.5115311535,15812.7865619006,15420.7214586922,14267.8763592611,16312.6900806824,15632.7595488698,14965.1605014714,12670.5812558303,13331.8257371119,13552.7399971323,14900.0906004705,15092.3891724712,15486.7558253363,16134.2727565353,15087.9089214267,15421.4368500724,15631.5503826107,16103.5611255455,16006.6016036953,10376.0343099439,6580.42959580687,7320.63722206645,14433.4022140152,15108.3320814798,14563.2862764394,15279.5331209423,15089.9211410056,15387.9905109289,15580.5227225255,16218.6065274636,17021.9201819647
,83,16135.9219245939,14361.8090163428,16387.6718825331,15005.8577899864,14255.6447416342,14210.7688105181,14993.2392887213,15013.3215248771,13892.2568147087,14417.2702796589,14939.3813322373,13657.1135794194,15726.706642568,15707.7405975671,16322.7042039303,15835.6709497355,14407.7411865626,15569.7023607664,14551.0758933639,14916.7817836496,14758.2423569372,13983.7291593581,13504.2683316344,13532.8290098237,15901.296411206,16647.4878014486,16176.6177019,15677.5298618909,16111.8945497705,15960.2688500855,14533.7769065708,13910.1282306814,13511.760475779,15875.8103347064,15451.1288268426,16646.4644664267,13675.1851749068,15361.1957517497,15327.7610887904,14651.4827727072,13102.5652550633,13141.967952461,15478.3933721875,16400.599360336,15729.2067935604,16470.3862849136,14934.5716994629,15724.3819636466,14390.5538841462,15581.111706823,15725.1137915312,16288.8564335208,16162.2725851634,16180.6523485583,16439.3021211442,15817.2744716378,16849.5104299346,15819.1826456509,14343.1463507681,16747.1620953389,14666.9678140766,14304.6591321633,15146.0708695389,15551.6136320744,15850.8700136015,15440.1460032045,15528.1616263025,15144.3792992748,14002.1235015503,16055.4967516275,15379.7947021601,14726.8944349912,12452.8437680312,13118.527595563,13333.6258065772,14630.338917621,14807.9019529856,15194.0855944447,15858.5416933063,14831.8527000124,15151.6422712038,15381.0474079281,15846.6512191138,15754.1382356409,10186.5527108148,6490.74733484438,7205.52522226275,14186.0655091717,14836.2824742296,14307.2701279797,15027.5229639177,14843.6118782528,15130.101510864,15338.8193305557,15968.0893644852,16799.187706065
,83.5,15966.138111583,14170.8980673402,16168.6931380517,14773.2311991851,14034.4941624141,13983.6939512149,14748.5509072045,14769.9869245113,13666.4840397963,14123.6500443893,14632.2442432544,13412.2375113032,15566.7493137696,15487.3252644798,16104.7644299291,15581.6220942391,14177.9490099581,15323.6809637808,14258.2924058461,14640.682534778,14471.6503778308,13682.2311236721,13190.6195077658,13243.9729970932,15685.1401845041,16417.0948953253,15956.1752288709,15428.5063730231,15837.4369040471,15695.2603270172,14262.8270076511,13639.068539802,13259.3709339739,15658.2875571928,15245.6345929863,16419.3307347054,13488.8778106316,15148.4543836741,15113.418956973,14417.7670233542,12905.7151880783,12943.9205180538,15258.5482012041,16169.581905743,15505.9056462244,16252.5026264139,14732.3763766562,15508.9285067803,14180.1617303886,15358.3607558534,15498.1055717624,16041.0201334301,15910.1068320304,15934.6358682896,16207.7704890446,15587.5172899977,16608.6549838146,15568.0166295006,14114.4690952575,16483.2454111004,14448.4013090872,14091.6963012673,14917.0613292963,15301.3949425324,15571.1248807945,15170.6630511864,15231.0379706216,14855.2087115062,13724.6776463563,15788.6188925036,15119.4796191967,14481.6391918859,12236.0246341845,12905.7047388318,13115.6268789973,14348.1843469607,14510.8725550731,14887.8825655343,15572.6066385392,14566.4657807721,14874.3740871718,15122.7240311866,15579.5051252194,15493.76916073,9999.34314802819,6403.12497937985,7089.30407108397,13933.5561409748,14557.2055289976,14043.8610192417,14767.0011967779,14591.1667757123,14864.2819552604,15087.0939371293,15706.061565958,16549.6027452792
,84,15778.7849092114,13982.9806925107,15951.3799537952,14536.7898320502,13809.9475698621,13752.3426757592,14498.0567632667,14522.7922934727,13433.9715518215,13816.6809374276,14312.6796271228,13158.9559481844,15416.7061108738,15268.3332319967,15888.6881229057,15322.3212912689,13945.5808176022,15071.1707518323,13957.0457806873,14344.8775387036,14176.6481151021,13357.9140472525,12852.6306410903,12934.0659245664,15468.7956666144,16187.9184257152,15736.4859582343,15171.0256924298,15553.0151337668,15421.3990092698,13969.559750245,13347.0869252137,12986.4660774376,15437.7544069433,15040.1246278626,16188.8510057734,13303.3166887296,14936.6189256991,14900.4580768821,14176.2144618888,12702.175508381,12739.7264451094,15037.5669612226,15937.684936744,15279.9397696196,16031.2911248818,14527.7469095217,15292.5398300123,13970.3959214945,15136.1318870627,15270.8140506751,15789.2837004511,15653.5359038871,15684.0406174617,15969.9553253291,15355.4052215557,16361.8856314466,15305.5726558096,13877.7885231229,16206.4524434199,14230.8696027322,13878.9495796376,14687.882058003,15044.2219055976,15282.5916644129,14890.6025632445,14918.3532195225,14553.2063300901,13434.7942120104,15512.947489967,14851.3173221517,14227.8103386415,12019.1560802266,12691.607609824,12897.4045365089,14053.0603867634,14200.8877897598,14568.1434925683,15275.2518024902,14290.0143679759,14585.9330896594,14854.8006318749,15303.0825614596,15222.1430270663,9813.96142475527,6317.16845930638,6971.91136777894,13673.7134885393,14266.7819987638,13771.6460633477,14498.1846534753,14329.5940790591,14589.371640625,14822.7686922148,15428.5948361605,16269.5428607624
,84.5,15573.8971974981,13796.9951097105,15734.5621931946,14297.5371849585,13580.6186353626,13517.3793182024,14242.3251929708,14270.4738098878,13195.3673191276,13497.0125153526,13982.6461767372,12895.5689789586,15272.3749916084,15049.6852791306,15673.1987374962,15054.0715080585,13709.0603650128,14809.9778870052,13643.4430791044,14041.6797398316,13870.0928441003,13012.7075611147,12495.6761761401,12604.4968733657,15252.7762554302,15958.4890321938,15517.8149040548,14900.9194105054,15252.7414687744,15135.1917610962,13653.5239700427,13034.1400314475,12692.096490705,15213.5981984393,14831.5474902578,15953.8679011558,13115.2102805073,14725.2032107662,14686.7090101772,13920.6822285301,12486.5712965807,12521.71903078,14813.4122627455,15703.1193506673,15050.7173876342,15806.5811108244,14318.8701214843,15072.200310428,13760.0437604049,14912.7125394042,15042.5885423074,15532.7638996136,15390.900377157,15426.8500321668,15727.805166887,15118.6201821517,16108.1529559391,15031.3876737476,13632.2016511909,15916.3253777368,14012.2768107179,13664.1822105791,14456.3181668932,14779.0759355174,14982.0219651004,14598.7605014791,14590.2087745031,14238.0153706741,13133.1196702134,15227.8216838134,14573.3412998183,13964.1221196934,11799.3452961143,12475.1181768081,12677.7704605871,13744.7144835135,13878.6179563935,14235.4756179078,14964.9709621942,14000.002214887,14282.6090675464,14574.4357673992,15014.8648781934,14939.0312249427,9629.2100006673,6232.76723080537,6853.00440713396,13404.6037997873,13963.3790569428,13486.0556905898,14216.3586837799,14057.6116492187,14303.6821157003,14545.4698394356,15134.2573448855,15971.0672407088
,85,15351.0543965695,13610.4579264514,15517.9408687026,14054.6558927068,13347.3572783925,13277.7783736027,13978.5438970191,14009.2316764296,12948.9316956799,13159.8051277327,13637.4597167524,12625.6773768492,15108.9817409671,14829.7070780794,15457.6719353109,14776.467435259,13466.0231155648,14538.0942300937,13309.9011906975,13728.3328293742,13549.6306917797,12650.8099014663,12123.1984047728,12264.8287573094,15034.3624395174,15727.3329909364,15297.1870427527,14618.3005980721,14935.3459965939,14834.7024758385,13313.9409671298,12701.1928647958,12377.3424950702,14986.2415418123,14619.5253311588,15713.1475292734,12924.1006138573,14510.870299145,14470.3712543875,13640.4231179412,12251.8901322041,12285.312564273,14586.5114530176,15463.6815122096,14816.4149532929,15575.7261835605,14104.9696851715,14847.9197253142,13547.5924398284,14684.676130701,14811.3937554008,15269.3883584563,15117.9077060451,15160.6665335453,15479.7506851498,14874.5868129459,15847.9499372017,14744.2362100315,13373.475260344,15611.1553777049,13788.1323880721,13444.9708885242,14218.9737291179,14502.9468336156,14661.2750862489,14287.3059947057,14244.3794301464,13907.128598146,12812.0495729968,14930.496665525,14282.9638916638,13687.7802510219,11573.9522737663,12253.2378427576,12453.4304381605,13420.9656647933,13540.2221242944,13882.050183202,14635.0418566146,13691.0840270395,13960.2336887205,14281.1013832872,14714.3733232342,14642.6539069861,9443.0128763514,6149.19583219275,6731.07654059905,13122.9351344398,13638.7565141448,13181.0773265963,13921.9253493792,13773.2070158065,14007.3341227609,14253.3875925504,14821.865918286,15653.4511981312
,85.5,15120.0627002693,13422.5865568366,15298.9535421144,13805.8616173919,13106.7189584975,13034.1387017423,13700.8498482223,13736.9172616845,12691.630574661,12791.5423410499,13264.8780578992,12344.1786238137,14927.6512391098,14605.4848069669,15237.3038081705,14486.4078571658,13213.9091586798,14254.4504716519,12938.8010182804,13396.4668951467,13200.1199632086,12271.936165441,11728.7117623922,11911.7898210489,14809.9687401243,15490.7335881024,15072.0060705935,14322.3446875027,14599.1401443587,14518.4320666553,12952.3808892976,12353.252866029,12047.3126306082,14754.5016266539,14403.3898530281,15466.2156151349,12728.3485668974,14289.5490924265,14248.6872077565,13332.8796732646,11996.250187869,12027.4071598604,14354.2199818879,15218.8077657147,14578.2073982422,15340.0271183855,13884.6377433893,14616.8145010379,13328.434331651,14450.3602300518,14572.397944004,14996.9726234903,14833.1760204713,14882.2744574862,15223.7168785952,14623.3428686314,15577.2608219341,14443.5428981873,13103.644372796,15290.2039504965,13556.4074639997,13217.0432393674,13971.2501187731,14208.6458362832,14307.9446036027,13941.469406542,13868.1629093539,13551.4055960269,12463.044520409,14616.273599519,13971.7899357524,13394.3427860439,11340.0105891116,12021.1541837046,12217.7994971883,13072.5406124571,13176.0441980577,13497.8759197752,14280.3231710644,13352.4206921449,13610.2349575685,13972.5887529276,14400.5712907791,14331.366300079,9252.4620259618,6065.97067956316,6604.82609317672,12821.4437228443,13282.0431867537,12846.2404238978,13616.8274313598,13476.5393591398,13699.6382635649,13948.6682758826,14493.750376569,15317.3312349425
,86,14877.6973408368,13228.0654271883,15071.9331150015,13548.6474516414,12856.5039471486,12782.7966724902,13405.8498428594,13450.6174112282,12417.4932625544,12359.539743353,12838.8942396719,12036.8772451584,14724.6922934321,14373.924138081,15008.3295739955,14183.8062847659,12950.9226076004,13956.5224621744,12491.2849148112,13027.2397422606,12793.4861776141,11866.2377630475,11298.0859875656,11535.542360455,14576.4955717611,15244.6991070919,14837.689538299,14012.7531039058,14245.6700205738,14187.5244321313,12580.656667288,12001.0802044695,11710.8248829653,14517.3326189804,14182.5996178434,15212.372169864,12523.3730767697,14057.99397788,14016.3925271109,12996.7376832597,11720.9090048374,11749.9120988833,14115.432032977,14965.518278895,14334.2708096594,15097.1709843407,13656.8988795237,14378.3114737012,13097.9002660951,14204.8299014555,14320.1470589828,14710.8463194996,14527.5271096951,14583.1372967998,14959.8422658137,14362.8982454173,15295.5020186188,14126.5465060848,12816.6047442793,14952.02853489,13308.9858994479,12974.9328363534,13707.376716259,13884.797853407,13892.895376951,13531.4381261792,13453.4918380948,13162.1544852827,12075.1527189973,14276.81928558,13627.6319661587,13075.6567234989,11091.25862925,11772.6517786483,11964.8614321104,12692.7523173001,12777.939250292,13075.4495390301,13885.6743836757,12964.6555358106,13214.9994823164,13643.0021190046,14065.637067065,14001.4642659465,9051.58453740662,5981.9572577155,6471.65684551834,12489.5815821968,12878.0726908021,12465.8183876784,13297.1998190836,13162.9088240687,13374.1625722462,13632.586681195,14151.4561177428,14964.7907216887
,86.5,14616.0393411436,13021.371803224,14831.2998443351,13280.0353786513,12594.2890986652,12521.4994557971,13085.3089713626,13142.3059341699,12114.7107295568,11804.557551092,12301.44870475,11667.2390529234,14493.4470991194,14127.8615079437,14763.4796875357,13865.6707300285,12672.8729646206,13643.2337757904,11913.0627267334,12580.3323004981,12272.1026595708,11415.9704320601,10812.0297332377,11110.921340818,14326.8551220797,14981.8164959755,14586.0959739965,13689.6353084182,13876.5628713917,13843.0976267193,12204.8153996829,11644.8323124179,11370.6129644731,14275.1414737459,13953.6390682439,14952.7489242338,12302.5316840964,13808.5218249007,13766.9798558136,12635.5213411449,11428.0771423039,11454.9156329329,13866.6855209609,14697.6943623858,14078.1853524722,14846.2096888935,13420.5625220522,14130.3715436015,12848.7901745009,13938.8598478792,14046.9221492759,14398.7470840895,14178.935924596,14239.5589221531,14684.6662026084,14084.2558864634,14993.8267949295,13785.5365978685,12506.5751725375,14586.1902098731,13038.0202811801,12710.3412323158,13417.5586265514,13503.6719389435,13373.1274250085,13014.5109596799,12977.8484018297,12716.79377455,11627.861880407,13884.4408686899,13222.9597484499,12706.0183928711,10820.3540691157,11500.0312262754,11686.1631698298,12269.6345133875,12331.8812038843,12598.9284775503,13426.5335451735,12505.9517987016,12754.4126291501,13274.5397492199,13685.5975466243,13637.1171871009,8834.35343889862,5895.34166193167,6327.09939409556,12111.6600812335,12394.8220089223,12009.9882113985,12951.4726797414,12821.0651956897,13011.9115077499,13306.2549724019,13797.4014924507,14598.7176476698
,87,14326.4912994353,12794.1252350568,14567.8253484818,12992.9559346858,12315.495252175,12243.6203799609,12710.6766842438,12793.5980995327,11748.3891768026,11086.2960440309,11603.7787178052,11174.4114659678,14225.5190555005,13859.625325138,14493.7125378829,13523.1873580503,12370.0655625373,13304.1675471336,11161.6149298488,11998.2805048099,11593.0814339926,10898.3418858303,10243.2100900398,10608.6915074697,14049.7765991608,14692.8039377765,14308.8591553386,13348.7427329165,13491.8859517201,13481.3139898638,11820.4286676455,11278.825288907,11022.7496430547,14022.226211398,13713.9436336479,14682.8587039442,12058.0255065031,13532.303500033,13492.0142312371,12254.8695626704,11123.5595436583,11149.2140823934,13598.555262995,14404.2624752737,13802.3713425505,14581.382853592,13172.0516284004,13869.7906915791,12570.5544878762,13643.7259447986,13741.1730232582,14030.2776032003,13752.2169442422,13816.8064620142,14384.7875340222,13770.5078024185,14651.2008732027,13408.0338843072,12161.8431613673,14183.6303870388,12732.6854994893,12412.6052222315,13090.4262081518,13024.6835699073,12683.4837409297,12323.596022524,12423.645910532,12198.6479232392,11108.0400466754,13413.2112503149,12734.4098341732,12265.8958956686,10516.8298959673,11191.8906360439,11369.1802987221,11788.2889381449,11822.8210837414,12052.3825718235,12869.2870675423,11942.374898333,12194.9219763559,12816.2367500055,13203.9152284377,13193.5751419809,8592.13293272022,5803.13850573115,6167.18820916124,11656.6646760664,11799.8692158465,11449.1084276885,12549.3476513932,12415.1616537533,12564.3909999242,12958.0479342572,13421.626181058,14210.0317080376
,87.5,13999.2224610438,12539.4678207319,14272.395429779,12669.1728477549,12002.3723935972,11931.5814858372,12222.09268108,12353.9077266285,11265.4632607426,10187.8781941245,10719.0406331178,10512.7380338941,13923.8378948542,13561.2087879367,14189.2540634479,13126.0641316497,12019.6598829142,12911.2989507935,10226.6675656927,11236.1937175329,10726.625737843,10280.1985245853,9573.8076274327,9994.14129841314,13735.9818730095,14366.4819235676,13995.4752235417,12968.3829036968,13070.91035854,13081.7043635469,11415.3427310812,10887.2594981989,10652.0151749001,13740.9173261304,13447.6578267401,14390.0937275565,11781.7609356729,13219.3620752752,13181.7053436451,11862.5340993275,10810.5345135613,10833.3552692021,13287.1602117256,14057.0579715297,13479.8807355563,14286.1693984517,12896.7967329299,13583.0924825098,12253.0481332843,13308.9172137642,13391.3056006774,13549.7848171765,13171.0587176669,13234.8381413287,14025.2871326305,13383.3056073416,14221.7645675109,12968.8586358144,11762.1642360437,13718.9327499197,12381.7056325073,12069.0892866074,12712.2149535893,12372.6731008676,11758.5674336872,11400.8234207663,11766.7056813032,11583.29265993,10484.7731893681,12822.3315748837,12125.8123591213,11718.3842275417,10167.1299637233,10833.9056673726,11000.3034638564,11227.6762648489,11225.4372090033,11401.4181442022,12178.8036862295,11245.2731696974,11505.4701676566,12207.9160597662,12562.301620978,12602.5442469322,8310.94232770411,5699.10851983139,5986.77754130669,11086.6665090888,11063.8940444218,10752.3426248926,12016.647890225,11876.9432418948,11968.0113071531,12550.2739732073,12988.1867429943,13763.4040285313
,88,13629.2676926194,12250.0249138616,13937.9528289654,12277.3430026609,11625.5191621741,11553.6090241657,11571.7849088169,11767.4461615244,10624.6937039869,9137.16467942202,9666.21971430463,9676.06723074383,13577.4914712677,13223.6775906313,13841.9128319825,12644.2944273859,11593.3073455926,12432.2506913832,9138.50620066145,10283.9506116568,9683.55507207777,9554.60324809592,8812.30397024703,9265.03076277652,13376.9955467147,13992.7344836539,13632.8060466359,12507.4033094246,12572.7142102174,12602.0918915909,10972.0728582238,10446.3505306301,10235.8637939962,13388.0131483175,13120.1731101302,14043.8887490464,11461.8730590948,12857.2130573914,12823.1697013146,11455.3858232437,10484.0392697085,10504.883103277,12891.0688332097,13599.642687148,13054.605524902,13918.5906523177,12562.4968522744,13244.2349196642,11886.6817626883,12919.1325095674,12982.1019171548,12885.7153755316,12378.6664654136,12436.7374582363,13561.618848047,12860.5818429514,13640.3090934997,12437.5345695762,11279.0178084401,13161.1670463761,11971.3333350442,11669.6776850403,12269.7623504852,11489.2486325302,10622.883611672,10277.9469588581,10956.2309310369,10817.3466502572,9708.7660019229,12090.7816020427,11383.9296014051,11045.0491644056,9766.9916247559,10418.3334906482,10572.1321824517,10556.6875627691,10489.1568099775,10593.6019826613,11338.1224387888,10412.5943442874,10678.2905551194,11424.2542266841,11735.6231263912,11833.3443809833,7988.94935655814,5573.49522708244,5789.50914955222,10382.6955880495,10186.7678331351,9918.04275639893,11312.5938350697,11167.7309690858,11190.2101844764,12017.0503012545,12430.0507699723,13194.5113586036
,88.5,13197.5007280196,11905.2269623726,13543.2938939171,11777.3423425824,11145.8687233045,11070.7562209301,10743.1145201686,11002.0375992994,9819.1972736958,8006.05727487633,8506.04214787902,8691.4010849871,13157.932230252,12818.9629771391,13423.2011643538,12033.7714958438,11051.6177063946,11824.0841699518,7983.68866023832,9176.05089722817,8527.69599426773,8735.95833646776,7980.13819447124,8431.69406409716,12946.7365864184,13539.862404433,13187.883766462,11926.3747090757,11953.059019579,12001.284102325,10461.6489279265,9930.07189775951,9750.30114112778,12921.5292188706,12692.2259475839,13604.2883542596,11071.1165914806,12413.457090699,12382.3865062516,11027.8710152338,10137.7549173229,10155.8948584197,12348.8943745599,12973.6173771314,12467.7213670966,13436.0322476788,12131.817414769,12818.7741664817,11446.1010253691,12442.3520681726,12478.7823276735,11993.9223714057,11358.9386865911,11406.8483366657,12932.8105990193,12151.2277760419,12844.0017667513,11783.2658895108,10684.8423007468,12482.5268042209,11477.527713615,11187.0254834553,11732.2620851057,10393.928913487,9345.52465733808,9024.21006738074,9986.22480812282,9888.8788989919,8810.11335325329,11220.1248759189,10519.492411801,10249.3655342328,9309.8043234353,9929.18538444647,10066.4375490355,9738.2642913346,9605.24560746557,9639.52145912662,10364.6128430252,9477.0777529119,9739.34598059966,10474.7739171919,10736.6573883937,10890.0076482148,7627.30140255695,5425.24933199393,5583.52844284945,9548.8571270602,9190.70311550722,8967.03665425068,10433.882408596,10287.6960701927,10239.6166652552,11311.5611211953,11693.5780510323,12439.5512840581
,89,12647.1895657654,11441.6241245425,13024.1008174414,11135.3111550116,10531.5220216122,10453.5873055934,9746.95807895769,10057.3112857108,8875.01704011115,6931.94348576665,7370.47499056766,7637.60364532457,12594.3895256243,12273.9502707886,12855.3298709622,11272.1606651893,10376.221607225,11065.2843865882,6886.49868947176,8005.08075537363,7388.50372191973,7854.46151913665,7131.25430760821,7547.55793437569,12379.1776758808,12929.9017279868,12583.570440229,11192.7978146187,11187.5102894476,11248.0519788956,9864.71899334681,9319.94461536931,9175.31285114559,12264.7475615882,12089.8253466878,12996.2237111881,10545.82969043,11819.3038620189,11787.3376123004,10568.6055064883,9760.83159850344,9776.47431054334,11607.4513618654,12124.457644751,11666.5500046583,12774.9454479996,11549.6988646052,12248.2246931139,10875.80239616,11813.0963332053,11811.9414282166,10886.8811863552,10158.9956375872,10194.7262564425,12076.7414847958,11203.6023688481,11787.3352024866,10942.3158306143,9919.14657886745,11622.935739591,10848.1457901974,10566.8911187618,11042.9601774713,9150.1279997769,8022.47618522276,7738.56963543768,8916.65907477932,8854.08815862477,7844.13947520068,10246.0851700598,9566.79820035678,9366.08817321964,8773.44091963035,9330.97261224463,9443.651732652,8798.08409021132,8612.85996017862,8583.11464143823,9301.15581786968,8474.75252754518,8726.03023650045,9396.62310970531,9608.13062440147,9804.55713709889,7216.66236983254,5255.78930809652,5371.89554424157,8607.56334011803,8146.88046068736,7964.10865058476,9405.42242861003,9263.79110982237,9157.01456186689,10412.6327469717,10757.3726050892,11472.3146520608
,89.5,11856.803329764,10755.1088684705,12247.9406932595,10327.6636067645,9759.49586271618,9680.55750819355,8641.1259114123,8971.82313286928,7856.75678559146,6013.52011717502,6370.74799597476,6647.70239305484,11777.9704641451,11481.5676263881,12024.6307840018,10358.449682433,9564.20465290276,10156.4041322553,5957.61117914997,6895.73513666237,6370.77177666864,6972.57049090702,6337.89027416153,6686.66735606859,11569.4722959481,12055.8097182583,11720.4575703992,10289.4241059123,10259.0685946724,10324.5305509899,9163.71933391704,8592.55022567919,8489.73106528142,11376.617614485,11257.8204599985,12155.5032035913,9822.85178121771,10992.4847871283,10959.2850734854,10060.1322540698,9336.56833117986,9347.98095094454,10660.9212439338,11058.3473195267,10652.4321542416,11895.4477642803,10776.4562103004,11492.4367646578,10111.0044838304,10956.4389107748,10918.3601806012,9630.17732403304,8853.1672275971,8875.69747232327,10984.0986207601,10053.2466518662,10516.6911306953,9921.00869266341,9001.75680335823,10565.5711399727,10031.2148267116,9765.0327396501,10164.2895175091,7846.82822068233,6805.46336948826,6572.81160295989,7803.30110718684,7764.88021940758,6857.84912732915,9190.87946625314,8556.59762632494,8414.55113245556,8136.29991928297,8600.77023617396,8688.90056389598,7782.34397939967,7560.05838246009,7476.51860955123,8218.68783576539,7484.59469115192,7716.11270098914,8277.96196789012,8447.696199195,8654.29709876408,6751.36035936363,5064.96306871385,5158.09429301637,7627.69264507967,7135.22793141628,6986.33862344981,8293.32952844496,8168.96786174841,8034.70962458496,9343.93674453985,9642.90674414851,10308.7689026205
,90,10835.0593857816,9853.85902246926,11213.2310328344,9362.40989678382,8842.97038184275,8766.73536985721,7542.80593756319,7850.07013292934,6874.15623327893,5316.90810413315,5593.35067944189,5824.22331430347,10721.6273357297,10454.0623786727,10943.0888259725,9333.88080914161,8647.41215875049,9136.15087105381,5256.4768045779,5963.60275270906,5564.72024621233,6178.90357494989,5660.96840209506,5932.95959541045,10533.2753748232,10936.6404039032,10619.9215344275,9244.24415626775,9196.78587163574,9261.04874546487,8356.39010643144,7778.99891215559,7714.61591975759,10280.3691174063,10207.8815359257,11072.6188114229,8924.08977196877,9957.30622884143,9922.400657201,9488.14825734715,8853.17043982475,8859.13796669444,9557.63958047189,9833.39188775873,9480.52686410241,10810.0846561568,9822.14497473313,10537.3875444295,9178.35454505145,9900.97455737314,9832.137529905,8339.30874078855,7600.59855749741,7613.72212144015,9732.59971243373,8785.30613674781,9128.71334475189,8786.92816301591,7993.27495594774,9379.32877692871,9062.84945334668,8817.55000312815,9137.45835791836,6655.20945983574,5861.69414533686,5680.1437594536,6725.11142509043,6700.10733491772,5951.01511243699,8144.27718159343,7575.87521672546,7477.63165100574,7436.2730226952,7780.81579038521,7843.91227063302,6761.40909711143,6532.54706866625,6433.33790067697,7210.04702047084,6590.45423282552,6793.81254936433,7239.6291314405,7375.92060877866,7569.96752702585,6267.8306821008,4868.78107935427,4957.22660084209,6701.500060913,6249.61882991867,6125.18880724139,7242.49492366627,7140.21344617998,7004.32873790492,8187.56320246428,8432.0596897519,9027.86322508779
,90.5,9607.51494048469,8762.9987539367,9946.85155747962,8309.5727350754,7850.41073626876,7782.50022851942,6568.6633886061,6814.1914139385,6029.66916486629,4847.11048851819,5053.93789408407,5210.71493202315,9458.97946301596,9222.6414681083,9643.18396956108,8265.17873356201,7688.33932220091,8074.72241078988,4791.80437660971,5267.73559937324,5005.45542493372,5517.74219633815,5129.82253460231,5324.68426937024,9303.80107431502,9609.34500328917,9322.56911677528,8148.66342746675,8093.33348542332,8152.20524959839,7494.69551641072,6942.75303484385,6907.84806173328,9066.51786480071,9015.13712780638,9813.20111132714,7886.61497294531,8755.72225927,8718.53976356149,8840.63894953009,8299.55027322538,8297.66191137977,8377.18355308354,8559.02819929166,8258.16284017913,9603.88570005776,8756.88240972852,9440.74467810867,8114.81212616774,8691.91100255294,8603.59342526619,7163.45312226433,6531.34757873757,6541.78963334036,8419.64665703717,7532.15853728653,7768.34191869608,7621.01373733877,6964.94722370447,8146.77471538407,7986.83433725019,7766.02707873228,8010.0842181302,5725.41411932178,5198.9687970025,5060.29707871767,5836.47608250859,5811.30371675553,5263.09424042043,7173.09176881343,6685.14039109905,6616.48227701246,6701.01767565758,6908.1836027641,6948.47897049678,5845.39852094592,5676.90823701842,5602.62564975352,6346.05186442769,5842.1804217584,6015.4834003032,6356.04534092882,6466.47616180272,6634.18222784256,5783.9853775188,4690.4996604815,4770.91824902685,5898.06635997576,5540.10553564889,5431.57441643745,6347.21813952209,6269.69010300029,6150.38774933226,7082.19834355779,7267.46181484322,7768.59969625936
,91,8232.23227658486,7539.43788437567,8510.01003533959,7264.22843371739,6873.61931413812,6820.04098599725,5776.44887169272,5951.02961477947,5364.11924642854,4570.8060052678,4725.43731710056,4806.54182735707,8064.09134047466,7860.72787100979,8202.55568199748,7253.69678278154,6777.08433002194,7073.03992350288,4522.1972802746,4810.54132778176,4665.27406849839,5013.07534736198,4762.21552896078,4887.23106507418,7951.86513707101,8158.35967843853,7916.17421310068,7095.88137930091,7051.56886885396,7094.41856672091,6646.52640327064,6142.10850925205,6127.77810455098,7825.67976893406,7765.56828097855,8466.61361806538,6785.66412374693,7472.76802571858,7436.64059553142,8116.73192647805,7659.57633013175,7651.71820879941,7248.87965248343,7361.89107296839,7112.1164356647,8367.06770472048,7660.78864390331,8278.62323924883,6993.66471302484,7417.94736440236,7328.59273729288,6217.04871163295,5718.51373610177,5731.05329540092,7178.73544508432,6414.89427146231,6581.11504217554,6513.80480155278,6003.37931550483,6952.06488696823,6880.57639838825,6690.38948867377,6870.59888155067,5069.70122811783,4787.01216508162,4681.42700673349,5198.03861322272,5168.37094967048,4788.05086219502,6320.76710740314,5918.35999108909,5867.02908034596,5970.84498879941,6043.45715414195,6067.45272633713,5147.99749940499,5054.50149077338,5011.04051526655,5659.24569818167,5258.50812177223,5404.82690533984,5646.28138357835,5737.01185898835,5872.25006939432,5321.18273920495,4537.42099797771,4600.42136744313,5259.53090414776,5033.44862410322,4932.54753042191,5643.30457017077,5588.33431211349,5493.89937916659,6135.47193235209,6269.14269946097,6671.75318625769
,91.5,6855.62455086166,6335.53160214994,7060.23968858784,6314.0831191839,5996.87475491296,5958.79080545194,5191.04820817643,5300.29706936316,4881.38697100181,4417.50460714047,4540.85434925321,4575.99733406777,6710.14540355715,6544.17664263112,6805.77731251835,6366.47701950834,5974.87682058119,6197.22554988946,4383.7185873132,4547.47856901676,4478.28452207467,4677.98985283304,4534.01243200276,4609.1024047739,6640.27497159757,6770.61248583546,6587.92206107419,6172.69864328474,6142.21700013156,6170.27219577617,5867.34663273018,5438.55299532094,5433.37673795638,6718.77997286924,6621.60010829023,7191.76008077986,5775.36509512152,6276.31143662652,6250.51274743341,7341.24752442491,6963.22512121461,6950.26728551245,6296.13262972963,6376.76518741752,6171.74315797075,7237.49968514573,6653.85079406049,7179.48247781089,5956.49914151623,6244.90414565416,6178.55557277646,5524.86350341827,5147.18154448632,5165.78042484895,6159.00048355801,5571.64226077156,5696.42942853039,5632.0328945937,5262.19355320752,5960.83337034277,5883.27542918698,5734.26324166515,5872.19208898909,4661.57955997672,4581.10922392233,4495.84988082264,4779.41189520244,4744.26839917022,4495.52808626599,5615.46422261758,5308.75786784376,5254.05179885838,5323.91277213645,5293.12289647275,5317.59933926075,4672.36719090581,4647.57212560897,4637.82130159051,5162.76211612258,4852.96170926892,4975.11889437656,5110.90108954551,5188.6422507128,5288.39372827465,4923.78835197298,4414.38020314587,4456.20248073108,4808.68667408296,4706.27258342912,4608.95370758089,5135.00846547605,5097.04921619158,5027.17092268629,5413.84944534132,5504.71705975172,5813.79491495714
,92,5761.74006518064,5389.67453970023,5897.8962941089,5537.66432546236,5294.33609269378,5271.94603474918,4795.20650438208,4855.46313366878,4565.71443572455,4333.73641087157,4441.90469143047,4451.55197978854,5655.71543165169,5520.23708412752,5717.1708470835,5654.05595918543,5332.6912643875,5498.59374736366,4315.36218975343,4415.05674072281,4389.34281374957,4480.37271646024,4404.19601549658,4450.24534868157,5620.42860827966,5700.62930818835,5571.229476077,5451.85567107261,5435.61490655987,5454.74421632792,5224.59971886755,4911.21689298518,4895.5838146425,5851.84390805108,5713.75947170991,6137.96204623345,5016.31618941757,5368.70944443858,5353.96540193748,6566.65127822968,6258.47362943055,6242.88694799949,5568.18222220668,5633.82242836166,5470.13283378132,6319.00730197004,5836.02174730406,6241.97512667132,5174.6045582781,5362.59341322058,5325.45458488552,5061.18511998382,4790.61800011244,4817.08561006138,5426.59288765527,4996.55740753707,5100.38720558572,5015.58535061755,4751.18824463751,5254.50493304854,5144.41553267203,5031.39526961805,5139.6574664926,4461.49459139902,4500.71169723429,4423.49460698007,4547.58012361799,4508.07532328307,4355.5029963266,5107.7510477946,4887.48722737506,4820.00204558077,4850.31727448007,4750.78189435847,4779.53465963943,4391.91400591949,4428.05717602801,4452.40218218554,4838.1514556829,4592.65238332566,4696.36631130859,4744.98826458124,4817.67276617081,4879.05826255109,4639.54874728181,4332.43792944772,4347.67478736303,4522.43819780186,4520.99131385462,4424.01228072645,4802.52742845651,4775.92277754764,4728.46018492075,4924.82503492278,4984.81708983071,5216.27053498561
,92.5,4980.20598567635,4719.74625198099,5065.02882104909,4986.23826931724,4803.96491043569,4793.39068271869,4552.23382355769,4579.16538017037,4378.94116864337,4279.3420873821,4378.40774700787,4379.18174602991,4915.88883261236,4802.72446515747,4953.37096132927,5139.94524509333,4873.7075637938,5001.53253477202,4278.1354094587,4349.17777197443,4345.48965980154,4368.72172871827,4334.71720305379,4363.017533673,4905.20122311032,4957.17368563046,4869.581180829,4956.95363124826,4955.7844952918,4968.36848505184,4778.13139705096,4561.82464232946,4533.43216110354,5240.09709423021,5074.70865021965,5376.2209986639,4502.42030825168,4747.71798587107,4743.17066032293,5848.72168941204,5593.28571011307,5578.67559660548,5053.61420380846,5118.59812048663,4991.36263267882,5648.03227304448,5240.70486891063,5541.12768730745,4641.4341755884,4764.01737359672,4754.97679642011,4779.52080518059,4584.88127231276,4618.34094289317,4947.38538988234,4650.98014948995,4750.3523884948,4628.97422145912,4437.45259151652,4797.84415120072,4648.62957678318,4564.04388982725,4651.93170193122,4379.59168431947,4453.42611245281,4378.9268290208,4454.80500497564,4413.15771063488,4309.7316786426,4765.76500372811,4613.63592976736,4531.57902569473,4532.07019643918,4394.2621095614,4429.853328745,4264.16001750673,4344.38267185938,4387.37370244075,4640.82024908856,4433.37765550245,4526.35329771669,4507.69814522951,4578.36673485341,4610.55443194204,4449.97194650737,4282.49219193771,4268.23035570489,4355.72435972852,4423.03707858376,4325.93656110348,4594.14049613216,4575.4226240614,4544.25361894401,4633.88876586689,4675.29155312197,4850.13307586662
,93,4496.38105836569,4311.7734170572,4546.98988382219,4630.73913807696,4496.69671743204,4492.95872017234,4404.99553317058,4418.00131490296,4265.88347627793,4240.12330180912,4332.11287795275,4329.05976862715,4471.50631393392,4374.05998138231,4495.86190794914,4801.99701353077,4577.00170004319,4681.00963102951,4253.20682447906,4311.11659859648,4317.26856696683,4312.73831945088,4301.55826754028,4320.94734595137,4474.9215823371,4518.38749985389,4459.82503289651,4645.32858703046,4659.29119611511,4667.00444096574,4498.30918626865,4353.65688071111,4313.06238190134,4843.77739034651,4670.42207673588,4880.52392402415,4211.72875299504,4388.33729673625,4393.17208588375,5247.6935336081,5020.10884503135,5010.9654783157,4729.48827750188,4794.4941049121,4697.07494498227,5187.40490069257,4836.37612574219,5054.92213178359,4333.84731443411,4422.45012286109,4436.9955996522,4618.44742376941,4465.33641931758,4503.02656552412,4676.20180265243,4470.86581685309,4575.76971246659,4426.91031913897,4280.75464038804,4544.90732848475,4369.01189180834,4306.23763002842,4381.04320275393,4332.35288377482,4422.7343982846,4348.77740279923,4413.06239780551,4373.29814507752,4278.90088234007,4553.18267582734,4451.12651097597,4354.23019839151,4349.18524090082,4199.34863488489,4242.59246034135,4222.94156567316,4312.30791467568,4357.55441544477,4527.40266377038,4341.29514720555,4428.59791930553,4355.99722901757,4427.49926337024,4436.62194033125,4341.39226528374,4251.25416005902,4217.0489421219,4267.47611188471,4376.00073832912,4278.50901342698,4460.9723760244,4446.67693240282,4426.70495620921,4473.61041905252,4505.94044376099,4648.25648463053
,93.5,4275.21444883209,4133.13865203723,4308.82693324438,4422.85709719001,4324.43332071998,4323.16304721694,4316.94518817225,4322.65713387342,4198.90704698543,4212.40124252915,4298.68438417997,4290.97236550758,4280.21193319249,4192.0232722544,4300.11826541901,4588.72782372192,4397.00023062145,4486.26354763076,4235.46863320732,4284.93883076996,4298.94158264021,4288.74755929477,4281.59778121693,4300.5130618907,4288.60989041515,4335.99621390781,4291.71126829552,4466.55482337488,4490.56547737858,4498.2913614024,4344.68941392688,4251.69884669916,4199.65645612907,4618.67616526727,4456.91068010122,4603.61743214096,4101.13442805908,4242.20786548575,4253.66383953332,4800.87835293336,4603.81227735839,4598.61131364763,4536.53296712569,4601.92702180194,4527.08256879515,4893.20489862434,4583.46263247438,4743.93533465773,4208.21728271908,4286.69108821385,4316.67997921054,4514.67690572861,4385.46904304569,4425.96780377946,4544.51657267822,4390.79630843174,4497.54042503853,4356.01430589873,4230.21585838238,4445.82775298266,4259.80819315736,4211.20155077647,4278.33756107829,4301.9084119589,4401.96718310311,4327.94167908559,4379.81063918285,4342.3510383903,4253.42402316583,4438.40199665361,4370.52660958428,4261.14233324398,4273.93714082904,4128.10549442816,4177.80834564753,4200.87300410624,4289.9396853032,4337.34687281996,4466.94690853171,4290.16039344171,4375.31328487571,4270.39075617764,4345.45110045019,4335.53781942227,4296.94925837598,4233.20775354263,4189.12579605826,4224.89469012632,4350.53595744242,4253.45617376542,4377.07899488195,4365.66260497296,4355.60717966852,4386.21455128876,4412.91385339516,4537.21772222135
,94,4236.18403500904,4101.8750175568,4264.17868782837,4313.61533861318,4240.99780227412,4239.36361186338,4266.19135970795,4263.959100826,4163.43303770398,4193.16272702696,4274.93205695211,4257.17408500801,4248.63555830791,4162.21247878432,4266.06001166636,4463.46868887398,4297.28897477895,4377.60001551161,4221.41292146857,4265.23726696363,4286.24330140242,4273.78633938296,4268.10131084528,4287.75064897811,4257.70989619919,4309.00008878835,4264.71186920695,4372.50679883566,4406.39170311432,4414.61870442921,4281.37612869627,4218.83709984568,4156.69208152918,4487.54624714917,4352.75068788914,4465.83513427434,4086.14625219962,4217.52764705152,4230.62771747006,4512.47899194322,4332.70784620889,4331.27301522209,4412.12807537809,4472.99926646608,4415.36689372452,4701.8187127374,4425.53579812355,4549.40147979578,4186.58486523169,4265.46710429483,4300.17133513221,4446.49432613373,4337.18726211594,4379.52946812427,4474.20551112365,4335.04654465132,4444.5019176975,4324.55778205247,4201.6729749278,4408.16938720845,4242.58148408237,4198.54022201173,4257.17073314672,4280.82427614469,4385.54817429828,4311.355798004,4352.62125479257,4317.4627334966,4232.08916427461,4388.27557301158,4336.19557563968,4220.09331753711,4258.39332015,4118.62407429037,4168.07357573097,4183.63630820706,4272.58239902464,4321.74848605994,4433.36356848282,4257.79191474463,4342.16796390056,4236.33015234284,4313.34418383449,4290.40921660038,4288.10214364489,4223.94389765207,4175.26476938735,4202.61516174062,4335.38447009988,4238.13040151838,4329.19448857925,4320.92030410593,4319.19522480807,4332.33135484766,4355.37086433617,4471.40457414058
,94.5,4225.56929062226,4089.84580120364,4252.90304644088,4251.15731373578,4196.61748610026,4192.34381455424,4238.91515255199,4228.08588341059,4145.03552407387,4178.08187008444,4255.32067316055,4226.63298761054,4236.41683939279,4150.87446168041,4252.39824448724,4381.3541043126,4237.08396459747,4312.10555534432,4209.2874516015,4248.22405794,4276.10338776287,4261.72643073896,4258.29458386457,4278.71737262146,4245.54622772889,4299.12602239184,4251.70762366821,4311.80017386703,4357.94907872068,4364.24735608607,4264.180999217,4203.11056673974,4138.60157714969,4380.91386824075,4280.3291670863,4381.39247293734,4078.58209954599,4203.86886869052,4217.34840165228,4298.04383871108,4126.42127933691,4129.87483374706,4311.77348569736,4370.2255269076,4325.67476634237,4543.66613757968,4297.65588983823,4406.18597650643,4173.35752481542,4253.57932648957,4289.91829696111,4401.8862068765,4308.3766294093,4351.91866323145,4414.93546024032,4289.46718335445,4403.14875646878,4297.69954264431,4176.52577318117,4376.53945066858,4231.56333980848,4190.25296320164,4241.47210549934,4261.90583232534,4370.411886972,4296.15571517805,4327.44819291613,4294.31576153415,4212.34516245549,4354.45601030782,4309.90682221439,4191.18711952045,4247.00982559248,4112.51856343509,4160.79710261696,4168.26025444371,4256.56679658704,4307.48006962779,4407.80477704805,4230.67559951012,4315.7329611012,4220.61902565787,4296.5970860028,4272.55942340736,4281.84764472383,4214.92634942958,4166.04966307848,4186.73404666291,4321.99022538898,4225.29273807101,4301.86055973042,4294.74781781811,4296.35261358689,4290.54440705048,4310.51196083948,4422.29546324967
,95,4220.94239910887,4083.67027541434,4247.83279237375,4208.18016563894,4171.23072343406,4163.96135177795,4222.76304092649,4206.3111383241,4130.03539753478,4170.31930797195,4244.37318393043,4194.00618432084,4229.24782656584,4145.38093170708,4241.56877254808,4329.83011329441,4199.23918098337,4270.25112610487,4198.05540052659,4233.95915740181,4267.90413987904,4255.23049941465,4250.96975106693,4273.84716677288,4238.00724523361,4293.53182183124,4243.71274560989,4267.41113989053,4321.45143980552,4327.44552266177,4252.09207047887,4196.69059937106,4126.12127019889,4304.71565779689,4228.19989197348,4316.76910531021,4071.88416000139,4191.62150563868,4207.19619686658,4253.36765423516,4094.84877092492,4098.03684880698,4254.76438559334,4314.22487613986,4276.42770042578,4418.08947151517,4196.30668827576,4293.78813755054,4161.14265492957,4243.61107360931,4282.37965607167,4379.26661330605,4288.02967969176,4333.99260461703,4376.79072359495,4256.01777325175,4375.48320734193,4278.40132970536,4157.57933402069,4352.849440899,4222.0101280792,4183.9833629832,4233.8742073975,4244.00254440761,4358.5830806235,4284.43293012689,4308.40072739512,4277.48868983147,4197.35876610119,4332.2087608817,4292.61641574042,4168.08659127947,4234.37881622534,4107.70554109453,4155.13583072428,4154.88228270996,4243.68124369056,4295.41920041703,4391.09062664013,4216.32702295988,4297.91670963597,4213.50933393356,4281.61651908874,4259.67953123794,4276.36885439043,4206.51943770309,4160.62148095913,4177.09899897772,4314.10761276562,4216.42346059061,4284.15924296746,4277.19864556494,4277.40820742267,4264.42093560528,4280.16113520331,4389.61582054454
