,Temperature,A1,A2,A3,A4,A5,A6,A7,A8,A9,A10,A11,A12,B1,B2,B3,B4,B5,B6,B7,B8,B9,B10,B11,B12,C1,C2,C3,C4,C5,C6,C7,C8,C9,C10,C11,C12,D1,D2,D3,D4,D5,D6,D7,D8,D9,D10,D11,D12,E1,E2,E3,E4,E5,E6,E7,E8,E9,E10,E11,E12,F1,F2,F3,F4,F5,F6,F7,F8,F9,F10,F11,F12,G1,G2,G3,G4,G5,G6,G7,G8,G9,G10,G11,G12,H1,H2,H3,H4,H5,H6,H7,H8,H9,H10,H11,H12
,65,29.1575155864184,84.8518875354398,78.7785335922608,35.995655051297,55.5400189606034,55.5269566424131,45.4999246246757,17.1031072387113,57.8791459207359,60.1239149535672,25.5450485214019,44.0308461427062,35.5961809138453,87.3671745886063,75.4354407320316,61.2890646969067,3.30871505748428,32.1642138644675,50.7600492178963,48.5711043209108,63.446275754477,33.7196361581714,26.4193058371434,4.80633022969505,53.202708942234,93.6947173353124,40.6942742108904,2.7772154870363,-43.6616538423568,2.03623870092179,39.812246793439,-4.73015306470006,26.9570873921157,5.34554402788217,0.826284575196041,-19.7916564945099,92.757757264133,98.5938245652114,83.8203994170772,6.69471118121419,44.6429712668933,35.4213680377179,24.5523580948206,29.7344932633564,9.762188589792,28.1627689219208,24.3443018197922,8.66151304948471,101.343775289999,106.371042831227,110.314805203423,1.7637807043584,33.1887201974992,14.1665189089558,10.9024177781644,-13.2671855370436,0.719271895068232,-19.5120451618413,-10.6624146063555,-37.6727012402353,109.508054269306,120.117004194229,118.113979837387,52.1880186408753,48.526244649669,22.1273948972844,16.1901183467489,4.94659642076294,9.71665818113706,32.9054343525108,20.3932219892822,14.5026779483728,86.9765432898378,98.6745211383627,126.571670635489,40.6920709280266,27.3135442377311,16.2828106260263,25.5883265285938,35.0691586902062,26.5082208066765,29.7568303691446,55.0819549089433,24.3617209352105,92.7046893396462,111.315834701466,114.441337423189,81.7269450399549,62.7428896031174,46.2522284995366,42.4634471343879,52.9919852907105,88.0489203958387,72.4443976350717,58.4301209154723,34.3058744702639
,65.5,63.1746171039076,183.845756326786,170.686822783236,77.990585944478,120.336707747968,120.308406058557,98.583170020127,37.056732350537,125.404816161592,130.268482399397,55.3476051297057,95.400166642527,77.1250586466658,189.295544941982,163.443454919404,132.792973509965,7.16888262454768,69.689130039681,109.980106638776,105.237392695308,137.466930801369,73.0592116760417,57.2418293138148,10.4137154976715,115.272536041509,203.005220893182,88.1709274569303,6.01730022190941,-94.6002499917695,4.41185051867069,86.2598680524502,-10.2486649735179,58.4070226829162,11.5820120604103,1.79028324625915,-42.8819224047725,200.975140738952,213.61995322463,181.610865403666,14.5052075592985,96.7264377449296,76.7462974150581,53.196775872113,64.4247354039394,21.1514086112165,61.0193326641638,52.7459872762133,18.7666116072137,219.578179794995,230.47059280099,239.015411274085,3.82152485944107,71.9088937612487,30.6941243027418,23.6219051860248,-28.7455686635876,1.55842243931556,-42.2760978506631,-23.1018983137697,-81.624186020505,237.267450916832,260.253509087501,255.913622981005,113.074040388569,105.140196740947,47.9426889441193,35.0785897512919,10.7176255783197,21.0527593924626,71.2951077637704,44.1853143101162,31.4224688881427,188.449177127983,213.794795799785,274.238619710231,88.1661536773868,59.1793458484121,35.279423023057,55.4413741452845,75.9831771621166,57.4344784144605,64.4731324664795,119.344235636043,52.7837286929525,200.860160235898,241.184308519842,247.956231083578,177.075047586571,135.942927473418,100.213161748995,92.0041354578348,114.815968129874,190.77266085765,156.96286154266,126.598595316855,74.3293946855665
,66,58.3150311728377,169.703775070876,157.557067184529,71.991310102595,111.080037921201,111.053913284818,90.9998492493442,34.2062144774154,115.758291841466,120.247829907136,51.090097042802,88.061692285406,71.1923618276915,174.734349177211,150.870881464065,122.57812939381,6.61743011496719,64.3284277289326,101.520098435793,97.1422086418229,126.892551508956,67.4392723163496,52.838611674294,9.61266045938919,106.405417884477,187.389434670629,81.3885484217817,5.55443097407033,-87.3233076847068,4.07247740185312,79.6244935868735,-9.46030612940422,53.9141747842305,10.6910880557634,1.65256915038981,-39.5833129890239,185.515514528259,197.187649130428,167.640798834153,13.3894223624293,89.2859425337811,70.8427360754381,49.1047161896395,59.4689865267133,19.5243771795876,56.3255378438398,48.6886036395777,17.3230260989626,202.687550579995,212.742085662453,220.629610406844,3.52756140871088,66.3774403950024,28.3330378179189,21.8048355563269,-26.5343710740776,1.43854379013419,-39.0240903236922,-21.3248292127105,-75.3454024804664,219.016108538614,240.234008388462,236.227959674777,104.376037281756,97.0524892993362,44.2547897945715,32.3802366935001,9.89319284152589,19.4333163622732,65.8108687050153,40.7864439785722,29.005355896747,173.953086579678,197.349042276725,253.143341270986,81.3841418560455,54.627088475454,32.5656212520562,51.1766530571858,70.1383173804156,53.016441613348,59.5136607382888,110.163909817886,48.7234418704143,185.409378679286,222.631669402929,228.882674846383,163.453890079919,125.485779206228,92.5044569990723,84.9268942687704,105.983970581422,176.097840791677,144.888795270151,116.860241830946,68.6117489405192
,66.5,58.3150311728682,169.703775070908,157.557067184559,71.9913101025531,111.080037921234,111.053913284777,90.9998492493328,34.2062144773745,115.758291841501,120.247829907115,51.0900970428484,88.0616922853851,71.1923618277119,174.734349177144,150.870881464092,122.578129393862,6.61743011496355,64.3284277289363,101.520098435764,97.142208641771,126.892551508955,67.4392723163378,52.8386116742358,9.61266045937327,106.40541788451,187.389434670621,81.3885484218413,5.55443097407215,-87.3233076847146,4.07247740182174,79.6244935868458,-9.46030612938966,53.9141747842527,10.6910880557198,1.65256915039208,-39.5833129890348,185.515514528262,197.18764913044,167.640798834092,13.3894223624475,89.285942533832,70.8427360754263,49.1047161896131,59.4689865266705,19.5243771795804,56.3255378438867,48.6886036395358,17.3230260989408,202.687550579953,212.74208566245,220.629610406814,3.52756140873407,66.3774403949797,28.3330378179658,21.804835556321,-26.5343710740663,1.43854379017057,-39.02409032373,-21.3248292126509,-75.3454024804719,219.016108538575,240.234008388441,236.22795967472,104.3760372817,97.052489299318,44.2547897946115,32.380236693456,9.89319284157091,19.4333163622791,65.810868705039,40.7864439785853,29.0053558967434,173.953086579666,197.349042276706,253.143341271007,81.3841418561074,54.6270884755068,32.5656212520425,51.1766530571713,70.1383173803752,53.0164416133384,59.5136607382224,110.163909817862,48.7234418704365,185.409378679288,222.631669402934,228.882674846389,163.453890079949,125.485779206239,92.5044569990919,84.9268942687941,105.983970581475,176.097840791689,144.888795270173,116.860241830907,68.6117489405087
,67,58.3150311726245,169.703775070655,157.557067184297,71.9913101029006,111.08003792099,111.053913285124,90.999849249461,34.2062144777233,115.758291841259,120.247829907282,51.0900970424946,88.0616922855902,71.1923618275482,174.734349177675,150.870881463848,122.578129393459,6.61743011497992,64.3284277289276,101.520098435997,97.1422086421985,126.892551508978,67.4392723163983,52.8386116746638,9.6126604595006,106.405417884237,187.389434670657,81.3885484213774,5.55443097409079,-87.3233076846905,4.07247740205139,79.6244935870627,-9.46030612951108,53.9141747840617,10.6910880560563,1.65256915039436,-39.5833129889525,185.515514528278,197.187649130328,167.64079883458,13.3894223623147,89.2859425334418,70.8427360754908,49.1047161898414,59.4689865270125,19.5243771796308,56.325537843511,48.6886036398992,17.3230260991568,202.687550580337,212.742085662468,220.629610407071,3.52756140858992,66.3774403951502,28.3330378175697,21.804835556376,-26.5343710741818,1.4385437899,-39.0240903234067,-21.3248292131275,-75.3454024804487,219.016108538863,240.234008388595,236.227959675167,104.376037282118,97.0524892994467,44.2547897942582,32.3802366937662,9.89319284121075,19.4333163622191,65.8108687048784,40.7864439784553,29.0053558967725,173.95308657975,197.349042276847,253.143341270823,81.3841418556503,54.6270884751093,32.5656212521531,51.1766530572713,70.1383173806621,53.0164416134317,59.5136607387499,110.163909818051,48.723441870296,185.409378679286,222.631669402912,228.882674846335,163.453890079697,125.485779206181,92.5044569989354,84.926894268609,105.98397058105,176.097840791581,144.888795269957,116.860241831233,68.6117489406224
,67.5,57.0126026817766,170.671879537062,159.292355238332,71.6530879717716,109.730140525667,110.796169173441,91.6048888717442,36.4967159601993,115.934513147781,121.819995913089,51.735831132939,87.2523530805106,67.5710743191098,176.490390982492,151.741362307083,122.914376505698,4.59762380728171,64.2923102731042,101.764515878841,98.1093986705209,127.681428481218,67.5822788679188,52.104044549465,6.74150911310926,105.641611292682,188.81115473931,84.3807876386445,6.96552338014726,-87.2787770482314,2.41637750403879,78.8359542842527,-10.1983041091298,53.4371795321276,10.5532216971524,0.667180346145415,-40.5608101525654,186.645023893298,197.992538057041,168.176117676214,14.8182444337986,88.5818494819086,71.1738530138423,48.3551862777545,59.3541372838567,18.8202689137224,57.4811906920118,48.6924716767576,17.3455635565724,204.084111806455,213.822385816481,222.195815164122,2.610240201343,65.8133034513489,28.215960830943,19.8862145129674,-27.9166562846922,0.839348176200929,-39.9178332462106,-21.7009820518065,-77.5776059274817,219.653056328097,238.812955938066,236.755787066449,104.689039024361,97.88694694061,44.8855416586907,32.0661811684463,9.49615918607333,18.5214445731935,65.2987518897421,39.856262308635,27.3954551268644,167.365388139792,191.416268640595,249.920785609224,81.3381817300842,54.2563355813168,32.6599112189961,49.7453344552855,69.5834348017047,52.3936898515444,60.0412577947345,111.041636520005,48.8757731356859,179.135102751246,216.295188055778,222.443621676438,163.502455223017,125.005132812385,91.7812505757865,84.1673896163388,106.461332883752,176.602068484214,146.555412028743,117.819320457861,68.7793448691718
,68,63.4575106588404,163.976244622553,150.41861872723,74.0658709509908,117.886314960107,113.08458673196,87.5271886342584,22.6644240275245,115.701011185852,112.991873825772,50.659236382814,90.9165005007007,88.6682292862511,165.299722620518,145.829161207816,120.199622351789,15.8704384066991,64.4494653764596,99.465972044638,91.4220084547314,122.195053586282,66.2570146769745,55.9851647014393,23.5581533473614,109.152393417151,179.182861817426,64.899215050119,-1.54214092129951,-88.3680820774075,11.706685537979,83.2429212941142,-6.56360661304416,56.8876448678129,11.0271314999732,6.70121588187067,-35.4503326666659,179.288138513118,192.411371900944,164.089025080023,5.93308339665464,91.2463289500934,68.6041616849493,52.8160060817572,60.0318103009549,22.6034462613288,49.5799418876045,48.3429858677127,16.6835308152531,195.556081264031,207.07109450184,212.03855384996,7.92084463843548,68.5427839505874,28.1697682668591,31.1771374144796,-19.7351239370764,3.80452440293493,-33.9899505887861,-20.1111173593786,-64.2245841093909,215.608147841254,247.381270982195,233.497434722581,103.146357899591,92.2628980048585,40.7270700216291,34.0416736621105,11.2539992674119,24.1504566965987,68.8470717135242,45.2017054538965,36.78934671362,207.858129897352,228.004586351931,270.607996125822,82.009813919296,55.933524145019,31.6359766861815,58.2335055354206,72.9088046029474,55.8670935690157,56.223346990264,105.190540297006,47.2127019350291,217.001738557914,255.199497724212,261.83936928644,164.354565621047,127.559594997997,96.5016883758049,88.280305663151,103.220797194846,173.341661375948,135.760850145203,111.656399805379,66.9161655797102
,68.5,87.1240072974078,155.715191287256,116.929785447488,75.486158891892,134.443585578048,111.460296591398,81.6400418952685,-7.81770332712358,106.853853355805,87.0886292236787,23.6833366145793,108.64049676049,138.977858545968,144.945718711399,137.295861955694,119.21793742605,46.5982793356243,63.8633558133592,100.03985577573,82.6282708568497,115.399813404607,66.5263794735115,67.4231274273516,61.7853292411928,124.021202859597,165.621734601796,32.9136040017338,-20.5549509590019,-86.02133560008,36.1895286849499,94.4328662449911,6.49508219204881,58.5179200745274,14.2666767779647,17.9457923933919,-18.6287011548297,166.392766070458,184.955608331138,160.581330400856,-12.2457753284498,108.256008248847,66.1235798157632,63.4475012128505,59.9400702665607,33.1237895084428,39.2210236988985,49.5985819374478,18.1339254515333,176.993710565555,193.312159492678,195.22423854063,20.2436587852121,78.3441992121743,33.1738740997725,56.4213240475419,-2.75685618093939,14.1823805005747,-26.8277266301125,-12.5444909570024,-36.1980179155471,207.814506398743,265.059474013951,226.109212127672,96.0919030201685,83.9342967110829,33.362469278336,36.6432886724638,19.0449532243092,34.2131887548371,71.742785568099,57.7621850202081,58.7209425059559,288.342874535974,300.047736854813,304.625504697794,79.8370326265867,62.6355712231625,32.1852726859124,75.9638751663242,79.5919820158169,64.6184326657517,52.5578469001175,96.135970472209,48.1619857255287,297.689709695822,332.91142458131,341.446616642396,156.095611932468,135.524625714123,102.334574561783,99.9144351077653,97.7049282908993,167.587353653394,118.194286522274,100.255070186985,68.363490644032
,69,128.598209085763,160.74495865941,85.3058831193189,77.305852166809,152.037304127615,106.573379192157,82.2882258317741,-29.5429875289883,103.027860645231,69.9745493957962,-11.3483436832257,132.618459464748,193.512412566959,139.390174245136,142.588934265286,127.522084555178,84.3263647353306,71.7351657180898,113.570262152154,90.2411733036001,120.452583311764,73.5307581330744,89.4286485296116,110.945705892307,154.690394687514,170.586153949798,24.6652347122786,-31.5575532442763,-66.8555975836325,68.7755643096057,112.951945920883,32.2688784069383,62.0084357773908,23.5462098020548,31.3687310451596,3.77076802218835,169.029563578732,192.486611011361,175.171626021921,-21.6558753288646,145.036542086465,77.7422523814244,67.1901595911454,69.8653168963592,53.9664730411851,42.8753379047826,55.8533810779109,30.6575217794607,168.965166289321,190.315774177065,190.37700840693,37.0578606054023,100.875979459626,48.6966422545729,87.2436996201768,24.3956780011126,35.025564642337,-18.3053793727595,7.53747564793184,-2.45608113354183,206.755757854519,283.863111272392,226.02337769448,93.394959640465,87.1655816265729,37.8023891751818,43.4360144433922,36.7654855821788,46.3341604565298,76.188691337532,75.8091713282602,83.543024907864,351.910020905915,353.756529884728,324.293673721371,76.1976332738482,81.882651212868,41.0391778466274,101.566064350297,88.086028218806,79.74617757841,57.9273388599736,98.566511291569,64.1125768504767,368.609949690247,394.376409218931,407.127661013037,143.729052360732,145.880873679066,112.474903051139,119.173971276814,104.9477226929,167.258432590326,110.814547230179,100.433661129793,85.5826042596459
,69.5,185.104498100189,176.989071940537,72.0601097016843,91.8084585394731,185.143270389809,114.992624853593,100.522878859319,-27.2818453776595,114.925565780944,74.8712969117641,-20.4440069604234,161.340489056382,255.062494045003,153.207261691792,165.065013927154,149.866799202153,132.865169862499,100.464969724978,146.191993523269,116.981469590104,141.930823199223,92.5005180835515,127.745466196049,170.164430998586,204.076950468616,200.635380937234,70.0035315934088,-37.8111817386139,-14.2570479206347,115.186056596519,147.787534028642,74.2627724292533,77.6670192825341,42.4485234946801,62.8684961407093,38.6248048794832,191.637974881503,219.66221462631,208.004671267592,14.5173333591206,197.417976364411,113.141697019464,77.5135863081382,101.141783931583,89.3304901125775,65.4417630599955,77.1771637066886,69.8206119916385,175.24618111284,205.504887869997,204.281240979498,66.893513304396,143.030267115354,80.8221144623326,132.963538638421,70.5371366748413,74.6567932871571,5.12339022596416,42.2009689270085,46.1698501410497,219.082082727566,312.429437822092,241.50911130131,99.0355430702193,109.782943875813,58.7257359763212,65.0132174925138,73.428958073082,76.3158620646877,92.4211427309583,111.916156365321,121.168287366105,406.584004556847,399.002348166511,343.332844392123,84.0869164783749,114.163280948697,67.3400309480799,148.4547977812,109.941731849585,108.941324000385,73.8500677464908,117.564853223264,98.7032685083354,430.217623758095,447.638794962337,464.349072211614,147.136177815456,164.936074956477,139.091601876793,150.312457558469,130.935986736845,176.478573909428,117.704709947878,121.914511093696,118.52480472692
,70,246.485105220449,203.836427411335,77.9532232251627,125.213885565217,240.257704506592,141.868751866417,146.27283954869,24.7447467667907,137.150460548392,94.7321670952738,-12.5699986084624,197.658341904192,313.792664835254,191.047140103027,201.661736358627,189.611560695338,193.492820503261,152.020462027748,200.247846771239,155.639775989101,183.65908769826,134.914426564826,179.579627060924,230.888324738477,265.214136661024,252.612026237281,159.190479558359,-29.8643421650117,64.0027172352015,173.908831034767,181.262438005985,125.664689183333,107.262024801179,78.8924696204613,110.670853469323,91.1580705303973,234.051333872484,265.567996714901,258.365979370332,90.0161470271446,256.124813024045,172.335428839481,104.357187779365,146.46661731229,139.20890781477,108.085471453213,125.331418356635,129.625308668658,197.171511374567,240.259859271833,242.214179131906,112.293179611863,199.919840088676,133.116338136973,190.050125167143,111.912392367774,129.562219451394,47.5874266762889,91.9190851556864,103.938174704483,257.33063097939,352.957434768698,276.19321654508,118.132459870268,154.058906466068,101.52032542902,106.16470355933,130.725632008606,125.906686182321,125.771072843565,168.723984538769,179.603489412453,448.136680996634,436.160337134651,366.040344429375,110.802953411642,158.702334491266,116.043422567198,213.161165901724,150.226032229766,154.565444521002,106.92935837072,157.781441618149,147.609320401503,472.72873819493,488.004609245249,503.404448121588,169.117083390892,202.813383107124,185.587972966156,197.509733637236,172.120089350455,200.884392938988,147.074496877215,165.436701577381,165.791496596535
,70.5,304.739091214439,246.495488749795,106.550630698687,173.586708258445,305.834474520883,185.471142600122,205.910970712277,111.281269602802,172.576408184372,132.553752955027,4.89821269924914,233.70910382466,362.387840925662,247.257026619136,249.636544928103,243.891461904009,253.505987689415,213.977234904632,258.106924280374,207.606439128006,243.614371319339,194.485332327078,239.756261149538,288.219807296665,323.735920245344,316.136760387456,249.527645311608,4.10322688054976,151.134852194884,235.521773816121,207.855733486379,170.211786393598,151.27487731223,134.181322700346,166.256036082435,151.698949549861,294.497408426112,322.750445935722,319.569278344107,172.021693110004,318.476465283166,238.941729091704,138.646501792385,203.317090310604,199.600991287831,167.365352445591,189.082666176147,196.058589596821,238.08399132443,289.619551756755,297.244464994669,166.084538279848,261.835791445284,198.344881358735,246.582681645937,145.358742919494,191.821432354566,106.527575719419,159.023982311527,162.718045030527,310.977338823662,399.041389133577,324.041620082819,154.482178127599,213.058919243773,163.808620840486,161.432750868864,197.054397799722,181.121744140924,179.605848420297,236.285694096143,243.197475479539,471.972776042004,458.740428000996,389.98477245523,156.615104530314,217.32568063089,179.770797943279,281.33748159517,203.204163218079,211.95732004337,155.684656771304,216.500722275258,207.143751466702,488.698929574848,509.688858538579,515.340744106827,203.262033230389,255.017828667439,244.763594195331,253.800414445633,225.904147337248,241.863772230764,195.409437452678,219.315514334758,225.945643368113
,71,357.199612949774,294.176971638562,175.206159007374,228.684633804166,368.907652540297,239.94553935033,268.076760154935,198.115041789091,222.475861455267,190.773040223753,66.3832491147969,271.099333767937,401.616805621846,307.395948789396,298.922466739164,302.618936934056,303.478733855777,277.96223774281,307.816631420082,265.849508091769,306.308573522187,252.844541217006,300.161675377036,337.482090454487,372.229582370305,381.015468866235,333.640155571337,51.537143410113,236.166989471129,292.295599752433,235.858943226036,203.994891383572,209.009375907534,192.607062981911,225.195788975721,202.993467878717,357.604116289847,379.842548981197,377.11122555116,259.58959688277,372.712767537907,300.607440511596,173.62180474554,265.372574119333,261.016550716404,232.937502446018,252.810941809484,261.843201285945,291.150600360822,343.814959045707,354.635671816631,220.263493749208,319.386375685736,262.186847855339,297.221204742397,181.572356661397,253.763524106111,172.407766640554,226.098771085419,215.55477279278,362.355842220351,443.236959018494,375.70582479428,203.458240342731,275.718540659214,226.147078440039,218.26718112101,259.065430660204,240.190221279081,245.123874510392,301.248072243363,301.946687344104,476.424050641968,460.887402746838,411.129894434712,213.014869082129,275.768138141757,243.041336834002,344.786694090201,261.151802897372,272.310935334905,208.323762296313,279.267358893364,267.226063454333,473.324182888894,511.23709762064,498.155164524194,252.0504124727,308.710249550226,304.398300476661,306.710321951997,284.029973907133,289.68940608844,249.531183710099,273.647689625965,283.505618087656
,71.5,397.358200278424,334.092194464993,264.892605287242,283.030136323961,426.685825083426,294.43424338078,327.467444566981,278.854128163314,273.529367405275,250.763248103438,162.104401964817,310.384281825056,430.478576274892,362.921500496261,336.011251107408,352.159708073865,344.637981335453,339.261449938332,355.054478049115,315.382332875862,359.079979648576,306.310216067023,350.551691910166,373.824066444127,409.288765402409,438.281252902516,405.128435412651,101.266551395186,309.774383999547,340.452809867516,258.836496024648,231.206626244722,271.210235429029,244.776407534888,282.48724989344,245.897400919761,411.221837729529,429.288505496126,426.096911870337,339.84815423361,411.773279340808,357.491438137217,232.025402767016,317.455026247084,315.342226423992,291.436493777096,312.644823085007,319.478275761262,342.476152098523,395.308686103272,406.864509505339,253.810771756331,368.677750489397,318.473021458944,337.284965640243,208.614784529414,306.605556892957,235.987247600966,281.36043795876,260.89687903709,410.312557516216,480.869976390293,423.635931706414,254.533471900503,330.884988610479,282.594093633449,271.340669857633,313.038036236033,299.484808644224,308.384994025498,357.021169991008,355.857764790539,465.161101102274,445.881424385675,428.096881467375,270.02017176799,323.489889467004,301.355333279862,399.415211557376,317.213801592281,327.548086078448,256.311394643018,335.384572245099,314.14921038179,428.840640939511,496.399038565795,454.779744423591,314.880485626285,358.419507837304,359.511746877872,354.434900099923,336.497694631484,337.166572846108,303.053324800796,327.92911375387,329.423534856666
,72,423.226181755329,368.879220581957,337.426583724297,330.14951407394,472.136321877918,345.713049074808,372.451831799477,347.734767594224,315.833229394884,296.782182181659,244.261379877018,342.668080784017,446.960285308135,410.196663399392,348.142240858318,392.071188112661,374.203150574563,387.391995918917,393.62603934238,351.340124367522,402.306017177757,356.794993428505,388.846434728852,395.374098894805,432.283926762687,481.682270665131,445.980485124785,178.381120387142,365.131614172472,377.497082321883,272.103511168841,247.638626474037,322.228571123345,292.473149824118,329.413880700356,280.883216995189,460.950037156474,468.005978719715,466.370565931491,388.295295116144,443.45520539324,400.984439619816,304.690953791259,356.411906859499,359.352013581114,342.257191776016,364.148613620923,366.589606526321,386.879040179087,437.614433773952,449.126025134604,265.508405851353,403.917373453599,367.312297777678,364.576939101292,221.762228136276,348.316048156425,290.669639567942,327.170972140033,295.952384144689,453.828001303903,507.729201295962,463.597976103357,300.070123974024,374.657868086045,333.068005248755,318.685966501415,357.581255093037,346.730440806538,364.645026619952,399.792470024916,401.035983849964,446.508702177535,418.691972492983,438.189107563465,319.492734375541,362.298577209758,351.531180529154,439.716793795411,368.425165029814,375.468678358884,298.65112648139,383.717252188279,348.161727225136,366.515247204833,472.32676735199,391.311980012743,368.051742855207,402.089407119017,405.583276377646,393.058497145504,380.26348566699,380.417759406123,351.672105752385,373.961539467838,365.554631459112
,72.5,440.450030722069,394.632457342867,395.870775507117,366.090372627392,504.772156309589,392.766874699083,398.477550324018,394.314157585642,355.002137063177,339.343782551846,313.322591989254,370.121847902283,457.071903784552,446.47275077005,338.407079149481,421.34782088576,391.529509542645,421.815135563856,418.715978265146,377.535261350018,433.324126157409,393.605843940687,418.736390406175,409.047669299092,430.405191275308,508.150913950902,459.432429469389,269.611766818072,402.154556984302,402.020639476518,304.598010149527,262.137118356221,363.13908913522,331.0410455384,367.240480895432,303.05230693293,497.896838442834,493.492710481037,491.888737361979,411.190675294476,466.759651282751,430.005274884805,359.404623946447,390.151511358501,392.79036476828,384.442412004545,402.851103625675,399.777562167423,420.518260503218,467.946961308336,475.742951325127,270.272756518448,427.926086521773,402.020082079409,371.84286449142,257.044821324178,378.915351285372,332.720843081257,361.63784998625,320.999845279768,481.954814788836,523.383287522406,493.417008881021,340.708776042155,409.422116344432,369.472047985608,353.200952328317,388.173933172083,378.429332958129,412.74844172024,432.699659256154,432.356591523319,429.713112049207,384.626004093662,439.957751521512,355.554965114806,390.150217404042,389.401420859142,467.650593861579,409.972774096854,411.33598246666,332.815077541785,421.862053208087,375.047521439545,299.579823247034,449.970330542191,318.951351318197,407.223217297101,435.264872628227,440.873006332283,422.731003701841,415.10206496462,413.066096167065,389.083285727433,405.935582265252,393.663407835883
,73,453.716059902314,405.017213207328,438.978715401491,391.60158759451,526.282487270767,429.122686455521,410.092436380892,418.302381977951,385.41280285688,375.388579930625,377.095411576308,395.26903086639,465.48858081268,471.005318361583,322.702859103368,439.044924665983,390.358639042934,447.735296062396,440.662726142535,398.717359657062,448.753451205059,418.54344304215,438.827484163646,418.985797829048,414.998545034616,522.377942064066,467.516759077897,338.799497282836,426.379480807651,418.815951945761,353.966836285974,299.434119544735,396.028151654561,361.066836580866,398.461407430415,316.147640771381,516.875901941635,507.525396306571,503.217028207272,427.991729856823,481.146785225866,451.723705806826,403.076063972117,412.149522139869,415.446217057004,413.527203646433,427.553919873058,421.573988531343,438.619899211641,488.44065912077,489.363360999473,269.359989865658,445.029879701688,424.20635939416,360.242747725229,308.084460788375,398.805324449685,358.835871871453,383.27579129175,336.245834700394,497.419177511079,529.193127799952,513.33011855424,370.959024503383,435.880397553989,392.88716936749,377.602513915758,406.948425622706,400.976725677636,448.126580953198,457.731969904416,454.88231213924,421.880749459979,352.132254417315,435.093611349743,380.06714054717,407.119591635961,415.28396877975,489.669911433797,440.949844446225,438.87832916217,357.481578498347,445.23211770687,392.956153832609,239.417815783348,439.84659930148,250.170355538251,440.901688353127,458.292210460389,463.695191565059,446.507690214716,440.010952757312,434.47166361663,414.709507984756,429.8134158387,409.163298003409
,73.5,460.642294840194,406.746990130593,459.229762627046,409.814947393978,539.425957604916,453.876001955335,413.771964895278,435.344629745673,406.231961295466,396.882916592891,417.774844746737,409.393563221874,468.013442170145,488.828370701629,308.912510902167,447.814815209113,376.358340362356,465.491538994292,461.463732749178,413.7199009319,459.536493888601,440.705713898067,451.697398967734,425.121840587546,401.896630460673,528.955859539137,470.267928314071,394.318647486339,441.872589005742,429.349209505926,393.658170425697,346.770833189169,414.686118223116,386.164296004871,418.336237032148,327.275539503978,527.541943650126,515.557200665739,509.649348755,434.19862021267,491.737158449203,468.050274736557,439.58037258265,422.65202742608,428.076605727047,432.955250181193,441.97753518419,438.326049574272,447.008705712466,501.611904032059,497.997293461468,262.509960921254,453.904193365421,440.562824680613,344.455679613318,345.339956445075,411.881678996809,375.935621542112,397.337052729434,345.838948624767,511.556803197588,528.547007946086,524.844280978138,388.422691435642,452.863218764856,410.72123270819,399.714372476485,421.659557113653,414.933884535414,472.047711253518,475.65764820647,473.064054994106,426.137263309109,324.696570067897,428.024567989056,396.737790501155,421.236856568674,434.103714431867,507.783663131266,465.205079651015,460.330061996002,372.424443570207,458.32397438973,398.62560295174,193.9981995857,444.961995335576,192.412703690022,461.411072485901,474.496458303887,479.610491559125,466.286030903768,460.963234951645,448.328390492833,433.16300497925,450.397179716782,419.649254716303
,74,464.012802834905,405.298211224351,460.429011767759,422.270822547271,550.886470327498,474.494638425618,414.456851884115,451.283346193025,422.308671637563,411.958066058579,430.933724763137,416.250227425802,469.089942818748,500.766810688855,299.02883580704,454.729827679819,364.596464814924,475.207703033523,471.906120172937,420.043375403566,470.682442941709,456.180741541128,461.761587581581,429.083726231553,387.638825066628,530.50863172015,470.263117066894,438.05947413361,452.845643666468,434.368440321144,429.489238709142,382.70784593601,421.03944516312,403.795254787228,429.637885370578,323.939175847226,534.107355113438,520.160677814682,512.53175487961,436.19177334012,497.100158990886,476.525155718216,457.113815106199,435.244034982634,435.32721976193,448.488097237335,453.286739305296,452.331082024205,450.364745632245,509.014755281629,504.401716424587,285.131965509279,458.000943788871,452.18471290775,332.069740620983,379.672858962413,420.33798936433,388.74990578143,407.218124217852,350.661801403309,521.323650298377,525.690646897335,531.700616690637,398.615866562525,465.600390291105,421.775337346231,414.502716680362,434.508671085123,422.379434657915,488.680747700188,491.677965754539,485.660864092237,438.975296951323,302.51689722934,419.406041139465,409.05376356177,432.441626232105,447.823490882969,520.760067508082,483.749182618716,474.514372825055,384.295840710352,470.271279003809,385.320804131388,165.35105911017,462.081215346378,147.721643156971,465.246003556182,486.974633320693,492.731531111697,479.061235432924,476.166324907166,455.543898452303,446.369783894983,463.796310680557,430.004588592154
,74.5,468.915015037029,398.4439032402,461.181621586421,432.154461623815,560.411754960279,488.482077890828,417.104518940978,462.260787545446,433.384011274551,428.19222453567,440.950568345284,423.49994849217,473.000805376948,505.373244934578,319.719083057144,460.024662343252,357.149038736999,480.19582766851,478.682307426468,423.000078700653,476.744774963536,464.630268969056,467.551223534579,434.046451003848,376.271417883001,528.787060844634,470.471314695641,455.646207003264,460.07088977616,434.712170119625,460.754323044169,414.975796511386,427.51472809364,414.694098097612,438.587738461774,307.446741314169,534.023518937448,520.682397053757,510.670271143158,440.785152132075,497.665709526401,480.558008434469,458.591816933072,445.58863344772,440.893713837821,459.770894705869,462.957927725821,457.077070960045,448.989404275249,512.874280087382,507.558171771189,333.370742445095,462.093393152304,456.4331324578,320.384232805736,410.257276573457,422.53708660238,395.66051043863,412.175921169655,348.440121304141,523.776358330425,520.826615032528,533.446711123796,404.881926317209,475.381988665602,425.466694184659,425.095905429931,442.087392066633,428.016763691483,502.726689855775,505.621732847751,494.82168946804,453.832567783561,287.006507248454,409.974245682153,418.732798859107,439.486678572592,457.122960733463,528.801399353565,495.890278848417,485.093194472859,393.254460978198,478.679271673644,358.995328929731,150.129817064076,483.557775062646,116.479521892125,469.54146784067,495.807083195934,499.713518239864,490.43521886652,485.448481992929,460.191141407184,453.710359858684,469.564345056531,435.685342335059
,75,471.784885894764,381.393826671012,461.607018862461,439.562628163887,565.08385649616,491.951037802855,419.434790795798,465.291034602959,435.826265586093,437.059329030884,448.83811204558,425.509968691976,474.925668434782,505.194530916672,366.901311372098,463.408083516339,351.869941003258,481.107982308369,483.950846962269,427.599955414438,479.343297487108,469.968345025885,467.353797551948,436.340362732186,394.590229001831,526.90143878613,469.278447941619,454.188335254345,467.341321519731,433.790929436535,474.603427451545,443.669434110429,433.096126513957,422.788163334158,444.112120228138,296.561739121577,528.94498114616,518.567810061584,506.959106949007,446.330769025775,499.275765289546,481.418041506638,461.488436920013,445.71563153953,442.346312280526,464.032626148066,463.81932700439,457.527920205535,449.272527629245,515.660759248046,508.540173863112,372.518747691845,465.595066737697,458.815508600473,325.693073619609,421.841017901167,424.328438532402,400.011122166986,413.325393334726,332.638483840988,522.9095444258,514.250750994584,529.641451828501,406.082597535971,476.479431535011,427.49926951733,437.528212131627,448.247012377906,434.912583750779,512.193376433615,512.283834125897,501.216539026481,461.377637793068,274.939405478768,401.801094936921,426.715267327897,446.395520592607,462.78160585369,534.271774020278,502.755773811753,493.672561462408,395.901497684483,480.932125755895,329.032087273058,143.368727051697,496.932112260778,96.621961047632,475.601496351779,501.795411145827,502.414959291203,501.071191859343,491.654728635086,464.584428978746,456.319403298407,471.832545081664,436.587421322349
,75.5,471.731723067676,356.709292784335,463.945909246816,444.359760183024,568.924917887533,492.023437876136,424.338916309698,467.701113530072,438.96141165166,438.154132189239,448.275975590891,423.810206764926,475.126985525961,504.557982991956,405.816925298517,466.275770642118,375.527018502002,480.87352397047,483.398292923451,423.838653895152,483.409476106538,471.289141908039,466.608153660321,434.652923070047,433.681514348674,525.359194422975,465.550948245496,454.489711344811,474.107035894784,421.256430234865,475.498160410939,452.562933957512,434.121159404901,426.391325212468,444.658653262767,286.838401528971,523.185988922827,516.691486407756,504.910399725632,449.502641385192,498.671267163123,480.125778931772,463.236394045781,446.521152397557,440.730728537065,465.860294551143,462.575104023613,457.677564168618,450.744254063191,514.014040080881,509.788511171518,408.502821556144,466.886614415388,462.175686045119,358.104510009516,420.7887328874,428.17880990638,405.870763929179,411.070126230087,312.549107361649,521.55740177132,509.28501103503,525.569869363698,406.123152827356,473.076361891168,427.663710059334,446.292729840954,457.466488555801,441.628648903702,514.725210356585,513.960812475191,507.659090748202,454.525777950804,263.946181020659,394.208379539916,432.758774796544,453.15425181392,465.734215506495,536.350392685347,505.252810276045,497.766159586251,397.120912016125,483.148356478595,298.231687164729,139.517706867384,490.013891077397,83.1924387031662,474.014711276242,504.614349143581,505.154135241332,503.746674406353,495.982681499474,465.385329508651,458.297574920083,472.809703014237,436.494955573103
,76,473.605577831327,338.908931461053,463.141571162871,446.689429244281,575.506024266196,493.27167280307,429.6178702567,471.538618310356,442.39979826442,439.94552960456,445.454654533022,425.932547271287,479.084944222086,502.439332277015,435.88105210328,468.724103235937,424.09044063145,478.802861137465,481.483217498068,415.640953774217,483.835135073698,469.93836279701,467.960946688467,433.233718164634,465.520261353426,523.527859734348,462.427543916891,454.601935065646,481.492966209879,400.373084987964,476.445653603039,450.279724607596,436.343669978035,426.239842945839,447.240014540038,280.635536933537,519.985145429414,514.286091709853,502.967995946999,453.865491690381,496.570008310473,480.167156856907,466.667414810476,452.28667888892,440.540328496593,467.653977902547,466.407617265573,456.014988801636,448.360939882642,509.924517558544,509.158023330516,443.935249921227,469.64653126005,464.321503995881,394.488813867797,423.073744468773,430.576205942304,411.055420922209,410.764468302353,297.193914965609,516.50789223726,506.042391160081,521.702523915459,405.392098981191,473.697232633878,428.675527806067,451.29684209462,462.708675874685,445.199251388381,516.596287711045,516.099224755255,510.501936195782,429.528206482458,255.123494549017,387.134436952596,438.346528478527,455.42082361326,470.648672431292,535.003987584297,503.287901008644,498.950147319611,401.001136527933,486.156770549302,277.998663071453,133.497649870163,457.881482915327,74.0950365280996,470.807583132049,503.897269422113,506.850108533809,505.605593208926,497.336964739539,464.658254478178,460.965547384014,471.856462797038,434.422570699711
,76.5,475.432343296035,328.313798729954,459.738823610353,445.632218540849,575.580061687335,490.914337170942,430.499027054399,472.066552031712,439.942906929919,442.798758066498,446.448913467284,428.259533323747,481.756206927552,499.546934091948,462.246983814131,470.670643099978,465.986041909158,476.695113865213,482.494431591362,398.114319605939,479.769404222966,469.928456040338,469.351214713263,435.240408783753,495.55506698598,520.332826660414,460.131680641299,454.77632854315,489.365330481723,385.458105564791,474.739640366954,453.16924906539,438.527629298406,428.285269502565,450.263263559068,301.798383282377,518.574979795074,510.048138085807,499.200435186212,457.141635133481,498.916347317366,480.066903909036,472.363803652145,452.468269118579,443.497284351654,466.566815267591,468.454866567936,453.590804711896,445.855229049911,506.948513714064,505.343695869469,460.499608854854,472.307862987052,465.752768498845,423.871589780736,424.690159358381,433.51961716494,413.681333795184,413.090845874013,282.937753024885,510.137864861842,501.690733505023,515.982186426105,404.721376886862,475.190189050586,431.366135762729,457.529525529255,463.367575578197,448.312844676566,518.90163703204,515.893963803635,510.706575773261,388.82818261538,247.584655958143,381.076362215313,443.828291779614,457.053188683167,476.332018392687,533.257129870122,500.923687847345,499.650433266667,402.703520239696,486.41795706197,295.390803016503,123.444715545066,403.702195540669,69.0017819784754,471.579454216787,504.484765008405,507.385135255945,512.150569902969,498.415526871775,466.107130657202,460.25451832528,468.553409876658,430.156415233398
,77,474.222578504443,318.207472169322,459.037874684805,441.333762995114,571.983357933429,485.684318201676,432.344663989575,473.588887175713,438.211412659862,441.627086114695,446.64989700025,429.400761944315,482.27935365681,499.026762861328,470.331121743201,468.809055130406,504.192279899152,479.760161697449,481.814928462322,372.571907925656,478.856256035139,467.960475031231,467.701768061268,435.48762553902,519.882633533578,515.934732060866,456.017994993363,455.277270788582,496.509233074876,375.341149245178,474.456585502861,455.955050505755,439.386527874177,431.136899869323,451.293804794666,342.244470621486,513.782714329057,505.177041291007,495.748445130678,458.847792772036,500.523064923331,481.060859302714,476.810084766558,451.982356915386,445.703868541388,465.125899145069,464.783045542868,453.374244213545,442.970432403798,503.345913246818,500.828687553309,460.558079294491,475.167956750135,468.417613277124,452.225947462312,427.703241371389,438.752329936237,417.141711751106,416.881388452752,276.41958921949,504.744144783028,496.7470171187,511.817951087668,406.09636452054,475.723158554761,436.447626474685,463.012515865543,466.854486951579,453.857985248949,514.301485900184,511.925811398272,507.690469227072,337.760107141503,239.927251084283,375.188491193338,448.578294006463,461.843222316984,480.234520230619,532.189847493495,496.821117565232,496.747898474546,402.689578766561,486.352593092221,339.501357473559,109.098963756396,334.823659757659,65.513136247868,472.144729725413,504.536936669763,510.528362090223,518.490882050063,501.326327520168,466.479520712655,459.921598744964,468.060437193476,425.317008502294
,77.5,472.489410341642,329.125623678177,454.10372071914,436.272693641929,567.030265328244,482.008290139031,436.750343855716,476.950177163066,439.569746553015,440.584099298042,444.530355884419,433.733814950305,484.617016656719,496.930083161659,461.40241463168,466.871925193694,543.113559587109,485.016861105184,480.010824338598,348.170085397461,480.489736520118,466.366599933758,465.842565116264,435.612645016993,525.851267944214,511.576606960798,451.206885546248,456.211253946195,503.427761821609,367.841900361035,474.279951082729,456.026555114212,439.970118895315,433.613731228364,451.067020497258,373.588595168923,512.069978552954,502.845865673779,493.618317514075,459.641031355952,498.156977175473,484.381153898439,479.97283108551,456.386027027324,446.471484370185,465.698206615314,465.39459282044,456.681123585914,437.068290630781,497.513245595251,497.715047301248,462.563887575184,476.591438701382,471.897561453227,472.259303299869,432.690363227438,440.861775049704,421.537200156062,423.51257516791,297.453633419098,500.474869962865,491.929565895875,508.669921762315,408.584390203252,479.666090833429,439.927777848354,465.373307217177,468.105168583312,457.633549737785,508.339327323604,507.247122269641,502.746933664546,282.025496439258,233.461035919766,369.146720360406,452.427603408361,465.892884137285,484.625789310574,529.726910080452,491.46240452716,493.53324369432,407.104241830414,486.546158818504,380.792062803078,90.902749635469,262.810977329439,63.0986313767767,470.192680502741,502.514338259856,512.709796589857,522.598674655331,504.198381868438,465.697977248261,462.124848610843,469.917789686598,419.573055486002
,78,471.240946519113,361.130645309332,445.664924216997,430.545187149916,560.034701407069,477.868836841414,438.137736161617,479.024453189832,437.90428496262,445.999761949116,445.401514850586,440.983692446116,487.120921731075,493.040052030072,456.579023806724,467.62211755254,569.243192219874,487.171868678606,480.561762467185,329.47049044362,480.265770624221,466.779047199334,468.208762593,440.444306891252,521.099200511797,507.455265064004,446.723045664763,456.008791711049,511.944775889606,386.175898368946,475.298240314718,457.068819549452,439.97398121161,435.938895915354,452.436502629522,402.796789443566,514.022414623844,501.160943177706,490.604413660421,460.921672675442,500.613258934593,487.812023377615,484.628211581632,459.489461768115,450.182663450496,466.333170714508,470.446084895418,460.472986190143,432.079284783363,494.757636723784,493.219714545517,463.472500239048,477.773197795055,474.643262706466,475.532257994189,437.561858220479,441.145866301533,425.219393874343,433.361624765055,334.730369461332,495.360901159567,486.485838043657,503.348472111018,410.501691370883,486.136361260357,442.385153792657,468.367873663482,467.311660934678,459.113052641766,505.985604058349,503.189050350903,496.172167403131,230.770269448971,228.120991430533,363.374159661003,457.345987267946,469.710183592589,492.207108633473,527.421823450038,489.766754550443,489.97134431345,410.246175888815,486.368752824738,419.727843591987,71.4111228679276,199.373686052094,62.3077269450422,471.765071999597,503.285366238471,512.55620439929,530.178833992247,509.359024078385,466.37992802703,464.007291676179,471.517069647504,415.432833235609
,78.5,467.343933725427,385.69008576658,440.442922168268,424.408071498092,552.287186142324,471.263673150613,438.613120559206,477.734406153724,434.293727970765,448.565554355694,446.522559561034,444.177324840955,488.347412571324,489.242140711076,454.319637080215,468.455088110808,582.853839127778,490.462423690583,479.841468312105,318.281833425763,479.461918293015,468.523182338742,469.533874463271,445.748365294967,519.040445671887,503.319430478383,442.954380463236,454.256350260823,522.214404940105,426.669568242796,479.104742803886,460.47702698567,441.180623217404,437.970372026979,454.820634986579,428.910344853411,513.385488762048,497.138845893921,487.462502413654,462.396766340004,506.740136473619,490.731610887003,488.313914054107,460.663785074862,455.280792003695,465.576517315367,471.748166620294,463.85899552781,427.451268835013,491.861031512598,488.648415981287,464.784706518232,481.564031373521,477.368308110213,477.542074045829,442.093301357356,444.793887899542,429.008848068241,441.28874895793,367.554482607552,490.666720361507,479.658522642566,498.947326631263,415.689255734883,490.578428026205,446.386921353826,473.070393330671,473.393510829686,466.140974018948,501.419629617303,497.077914312538,490.083866016335,191.236663142754,222.937775691385,356.270861357329,463.406487226714,478.45070308509,499.534664535091,527.632194097846,490.155911487913,486.689394928494,410.487038931938,487.576781580227,452.717447659742,53.8373898641172,151.618703170101,61.2689467483777,475.908502231828,506.862884629347,514.091843450482,538.795439645186,515.65119265673,467.486460284968,462.911546397886,473.558941535714,411.615495238665
,79,461.321461476793,404.480178485518,437.917686969452,420.564820028614,548.051378383777,465.523963608294,443.938010479575,477.614360950414,435.327304967493,447.694629096238,443.943593078094,445.164387855038,490.934503684497,486.196021077567,451.237018297662,471.44163017875,600.314818563746,495.100980813099,480.367996417948,337.461576639579,482.186140646674,471.526317793413,470.909379517108,448.418860658321,516.902829021744,500.554463888203,439.051880935387,453.871533258873,533.314548812303,461.536758997726,488.414457792366,466.165228372959,447.002712021054,441.194271206655,460.842552893525,439.672625706442,508.90922149471,493.74373520632,485.240129978497,465.345632058878,512.219998901308,496.520703005333,490.574394787682,467.482263433465,458.892106668035,466.727891070723,469.847505509426,468.366023315791,421.888476272424,486.737659821523,485.485337285397,467.144916972289,488.697200187102,481.830161262149,486.970245627481,447.411064933149,450.916813674687,435.475280320826,448.017861199323,401.045057699171,486.819079718172,472.699312784559,497.599360380394,421.701056702641,495.23128802346,448.684308255739,482.641569325076,484.116602318125,476.538900149733,496.582784804644,490.971148780176,487.897912943411,163.377592096013,218.386783015828,348.667158549007,469.356063102425,490.802261964458,508.227456428249,528.287455808666,489.460376924727,486.25274708885,414.153869670014,488.565150178966,468.776291935524,39.4210737477288,121.260549171245,58.8806918228954,478.494673762441,507.340483853833,515.826919212704,546.609442242733,523.257841161291,468.960568797325,463.358582984074,477.686188001111,407.389032526793
,79.5,446.661586807443,422.792377117842,432.21532058155,420.307823015993,546.465731828254,465.620462191017,447.64967711837,478.113307935223,438.297012415968,449.863284982185,445.42939541826,448.106644988417,496.498023203643,483.42187460684,448.025167349514,478.743795550953,620.558798436014,495.981138145979,484.915295948845,377.845601173125,483.482491865434,474.812660208565,480.653637520869,454.254562369663,516.088957343883,499.646819543018,434.332179761549,454.838382905243,548.313889292157,494.650983360648,503.153239128035,475.443766388076,453.890337980102,445.925554201141,470.514131681232,442.483064022585,506.581580694981,493.226365771479,481.232611075717,469.678591791031,523.107243034538,505.397643914982,497.702937764911,478.818386726576,465.378365523199,466.282266551392,472.446357365934,472.858592573667,418.651977185476,484.756265833701,481.605218341184,472.178455890064,497.672388373603,489.640468615178,500.191987761815,456.206454521722,459.124003830413,442.276327837649,455.528642483685,430.492906735437,483.038872745746,466.661110608413,494.985499457272,424.544854224581,505.295380478639,452.008442121256,495.36779740903,495.002240232178,486.370503843892,496.699418918651,488.35815753214,487.330178836664,147.357531815455,213.897811342824,342.091368882393,478.822635894086,503.663669938175,522.813773511568,529.708389937535,491.372237691501,489.27823957946,420.916121265162,488.762441814167,470.227203349112,28.7959723470955,106.471193867648,56.7019534730321,478.407117754663,508.689971742322,516.344538195558,554.512462438963,530.089039310513,470.04835686745,465.374443372715,480.202059847201,403.984507485304
,80,427.924450914264,429.136802190578,433.245990033609,421.192684807064,547.047306653548,467.942285066011,449.089815146408,479.76559897881,441.135769925391,455.101597324574,450.580881126501,448.979110775197,504.13230904129,481.768957003008,445.463018868828,484.937288765498,644.201894376248,498.728783004502,491.15064193525,412.827479481807,481.578695497207,479.179052716707,493.529467672155,462.857058124972,517.366155596239,498.424060888458,431.01981682074,457.095317032991,567.872652894162,528.139765170406,523.917394884119,486.302037859443,462.346983538611,451.771518553383,483.939456758018,451.527056048421,503.357524838424,490.390966053324,477.091123880287,475.092365145939,542.507488863379,519.017241968913,512.634524625873,492.54032110654,479.096663881152,464.056260604373,473.968977678142,473.992385258654,415.791353376625,483.619653878239,476.010748692961,480.941779247798,512.464682481042,499.76005165731,515.384499824841,466.213299211041,470.290526200286,448.464369901614,462.805877460741,447.385828085247,477.910144759951,461.632674703038,492.535465475569,429.633191432426,521.914856584878,461.155042362247,509.634155436192,511.080866687003,499.974002714539,497.738495234262,487.731258818962,489.014335727326,144.864407890934,209.596197021243,334.943541677932,494.676903445042,522.458332971364,543.440545512005,533.447694676403,495.667289593909,492.180265615247,424.092304119029,490.490989877999,472.459582492499,22.29148211651,102.824028824403,54.1389099080525,479.958862336985,515.02577769346,519.306460599476,563.971537500637,534.080406643011,471.422898780674,466.966921640123,480.916444841946,400.672366276789
,80.5,416.176052919346,425.426115199384,436.368229011411,422.775836985115,549.91220675884,469.226356011663,455.653193941826,485.716871309573,445.630262692736,456.828808066992,455.198182343665,448.625244187533,515.011652179079,479.758027869961,442.320526024783,489.674928171225,673.640422833842,507.294242611205,495.955125536737,448.296028571971,481.530007014381,486.735944254296,502.753359175912,471.941972103586,518.085075588701,495.932131652898,429.312481045501,460.945602853537,593.905155966961,552.213808601773,551.955770529461,501.627319809003,474.417929097425,460.501958838358,501.974543900424,463.272824014835,498.666744827583,485.015433484856,475.032273093961,483.808336297079,567.133057767136,540.455770891312,533.491232314874,513.393261794571,495.350406059838,463.970684859527,471.657578099608,476.801418348416,411.699289324004,480.954622625582,471.098111892023,493.824067090296,536.45078808052,513.678519940898,538.722084003928,477.356528366101,484.007410337018,457.049413347966,470.923703313778,457.650974104275,473.437094492025,455.900578314049,491.175919927327,439.359368988421,542.415290288724,473.703885226302,528.588426983844,528.760912588626,519.641232449716,498.757293690614,488.719088168085,494.297368820277,148.391648305442,204.924786740039,328.533570857036,514.711068031992,549.360110025008,570.501603177077,537.914385481547,497.546644846034,497.303434621628,429.53596646899,493.593490865155,478.759676383735,18.5002840486252,105.225882129137,51.0595482550915,481.916930870243,517.587190444107,523.755525419026,578.317616768008,537.915901386414,476.490756537305,467.924707608597,483.442326269406,395.611927930884
,81,414.094751431091,421.705261618245,433.475812600723,426.69378998639,552.288934072231,473.380531067377,468.489952356985,497.875569505629,449.474925081985,459.393691553919,461.938964477025,454.836866035923,531.143481871902,477.840531156263,437.938043756095,496.459242425753,717.039491276196,519.371378056755,505.809683431157,479.228132042994,485.832333694923,494.727105990397,512.747836856535,484.228191077593,518.573425892119,493.295604967834,425.762671322327,465.751172950193,629.503623257715,569.116674546499,591.87598857559,525.301060421857,487.978450957066,473.554013383377,523.468372288211,479.217266084378,495.726207297718,481.820907027645,471.085360727993,496.804587613728,600.422438422677,571.381553572893,562.700083622097,542.1321862206,515.860967110202,465.551308996433,475.298655687936,480.738450154387,409.876229426909,480.310474154599,467.401294248887,510.25414071793,566.586247491268,534.211922436162,567.836470971413,493.997218225976,497.712187302495,468.90392180347,481.833528650151,470.789819366961,469.25799665103,449.841761622739,487.036485018492,450.57441139056,568.102376499789,489.568054334934,549.636776839357,542.241956962234,538.996732743107,503.292742948894,494.414494998286,501.328114929902,151.770758999846,200.098764242021,323.07343117391,539.396248195917,583.205995665091,608.207846331763,542.199636181955,500.3919320359,504.473933070043,442.331245542227,495.905152139366,487.513830398836,16.6467772331017,108.10901753481,48.7390447494819,481.664784141899,517.508916021018,526.662318038662,599.547736959536,546.162170071098,483.972169098993,470.044880148624,485.162473861199,374.930025905934
,81.5,424.034615321968,414.783770640372,430.343023450951,431.349503226922,555.390889377012,480.613595811638,484.481956468204,512.343414179024,451.315394648364,465.434587722968,471.222910487457,461.885803659594,554.052361229275,475.490786060428,432.722425983021,504.133223388159,783.929819025552,534.981975004675,519.946720069659,495.391171316212,491.110636839518,502.564319922371,523.357765954555,494.919161247588,519.361314024255,490.070718920334,420.894557416176,471.446010121296,674.33839438676,592.546398740096,646.877814432878,554.294685276652,504.121752799241,488.78389796881,548.145504150711,500.355396062922,493.855168723009,478.857471584126,466.719485270301,516.265379398461,649.50035287022,616.034850781975,602.487261387214,578.239666562708,542.382664970667,468.554489137624,484.118644879994,482.111221249619,408.680289727592,479.044105957056,462.561393853132,530.983601357291,602.532219970001,560.786554699415,595.825666932083,513.850736668171,511.950990921606,480.651482301716,495.104583172767,485.193715677327,463.30652184942,444.860640302046,481.895725488925,467.064576992779,605.189590518869,514.206346869581,566.716146937893,555.463909413378,555.438032468326,509.320153215224,502.498385809391,507.142461444183,155.177983892821,196.157009173023,318.374826750797,571.904391514478,625.047275374778,658.032820609008,549.653978440494,505.964541366274,511.2529900902,456.812635225078,499.529566363362,495.185068783362,16.0283689748136,106.832099683157,47.1641879324693,479.49823169557,519.604993847492,528.132236086667,628.844666749215,558.717749739793,489.94540497769,473.709452750028,486.662831814324,344.105670181078
,82,463.342939701116,408.413415690001,427.969336298689,435.963223083012,559.645445637877,484.779341728894,506.370967776733,532.082910464066,457.558013340807,470.587874907746,476.649310963765,463.70434200077,583.289055096505,471.56387884236,428.356021763008,513.491267220643,882.009474758426,557.513526659217,534.969928454549,503.391961749024,498.308985597957,514.280810906731,530.78741208775,504.047196009549,521.211657433808,485.333352951281,417.830758409894,478.303246691285,728.599432670918,620.195019477931,711.617545456582,583.265270188219,522.777838813992,504.256289377598,573.021185190927,522.019986974558,491.631930726204,473.0098276453,464.386931997151,540.642917516475,713.128249781818,674.429201125467,646.207020450575,619.48254620763,571.696771304701,474.543685762998,491.745689215498,487.833259865247,405.120405788971,473.687724921781,459.187804662121,553.910226490285,644.356042735094,587.455730703723,622.23061512185,532.408434262338,526.928109911308,493.022241863139,508.472712938293,501.862004062829,457.989074342998,440.359857406215,477.675109554214,490.791461290609,649.819293079315,541.81304916593,582.327711631127,568.234833723859,568.60861142341,516.365525285816,513.235769400899,516.384676871106,156.838981370207,192.109005673673,313.09746227408,607.490407180023,673.366345050073,712.937379001231,559.663009729557,513.859239180108,519.235162036142,473.804031760394,506.17923402801,503.171206921417,15.5006718770215,100.805069554833,45.5154632762377,477.956580286726,520.806580199898,529.70553439698,669.391946275457,577.885857759424,498.406711074178,475.874464273136,492.266295766003,322.376612726958
,82.5,525.958370791998,404.24832867262,419.558689948205,440.498936919695,567.395284268154,488.418487966828,534.690775471182,557.219996334051,465.888112185588,471.516668202969,483.51061797413,466.867987965278,620.212424784204,468.170956431569,424.087189964998,525.772166629696,1012.57509294951,583.132588284337,551.768119194711,513.891148054318,507.358890042627,524.869139656016,540.503651043538,513.484638526972,524.701269014542,480.708234878168,413.980597775007,483.685724726848,789.72659620195,650.811354464813,775.934404055028,612.621731301607,539.878258115803,518.436043097014,594.476607898986,541.561116811318,488.993088096978,467.413256648002,460.779425630736,567.481542647874,781.048630536868,734.31386930794,686.587552038479,658.630697534653,598.878779187753,484.013454692105,500.980886848526,495.896727409223,401.742837820675,469.644606275502,458.222419448747,574.641636922038,683.485528451857,611.897399375769,649.294231044042,550.150174301781,542.406811434312,507.156766377147,522.004620328953,516.270528305675,456.033921779705,434.848692487067,473.858731015834,513.338096130457,691.100620797099,567.43133518,598.152874807192,579.616883002366,580.041340621357,524.945452004987,526.770279965223,529.864688559034,154.682065512754,187.036466141021,307.633789322404,640.457031199378,718.147733811426,764.672134741664,571.266940163067,524.006498704362,530.031407297595,497.685294807463,514.951214929567,511.624742988808,15.2976291031821,90.0269629769809,44.0327085885275,475.488160725036,518.684824398652,531.292092014473,723.500922353972,607.704712150523,509.769043876753,476.717931035276,500.080719051227,306.548251543292
,83,587.758190292636,398.027402819446,411.054038298299,445.890256888923,579.631208222334,498.347214976683,565.018646148265,579.027735226959,473.001779593243,471.232856071534,492.00622026125,468.46511498039,666.193035253722,465.830257188312,419.114147119126,539.186440280249,1167.91973711843,606.546141039424,570.938808315733,522.039094172449,514.916380587944,538.130998923929,556.271789369373,522.848919647422,532.980860336519,477.399776342345,408.250493830265,488.082526251649,846.902100714908,677.992072758146,831.962382028534,641.852468261015,558.624810315852,533.086661935924,614.634327144595,562.506847700036,486.311215090863,465.031475473738,455.676663018734,592.941946553715,840.850645812523,785.935664530108,723.014269503952,693.484346919553,624.832237792264,492.786207249517,511.498214507414,501.28251908196,398.744719107016,466.361871404427,456.804585560867,591.733551950493,713.860743258199,634.643038627186,671.840969727217,569.990503900065,559.971181997411,521.637870915325,536.229780448597,529.832036880272,454.823343211783,430.497945384788,470.660216561123,534.085283412178,727.646875503657,593.67602829735,615.271719043422,595.846863662128,592.959102717331,536.520265448478,542.859971704802,543.004851718439,151.130462360535,182.912362030186,302.074385124379,671.291708999611,754.024650332079,808.512218195001,587.416891947931,538.681773032235,542.644090177766,521.295382606815,522.803314624103,517.343418399039,15.5234627200489,75.5422611660498,42.6914409712097,473.797037214105,518.585028573258,532.258815606949,780.516345304842,638.041799853775,516.325806259522,477.671914018853,503.839237946619,296.557485074882
,83.5,648.794966609317,393.96634027136,406.300507865431,455.670988304852,599.022278000031,513.018585243644,588.603406063746,597.30651540116,482.321978998402,471.58018706751,495.720862782094,464.516037099218,721.784230101659,464.402105111203,415.587518602978,550.863480839543,1318.00372952381,625.685415776892,592.362653297377,536.564912200724,526.23873722592,557.379208284684,576.80103128679,531.148876078443,547.52151167618,476.21766428901,404.283612250829,496.181571288319,894.900535485577,701.271773858,884.125153692548,673.74835255874,586.875151109102,552.831863946131,639.548560656434,583.798356189988,482.967138274519,463.523089918174,453.799854159119,619.042711380779,891.761598686087,832.090139556257,759.39087589391,730.096097797807,655.824939741687,500.382757704816,516.780665044977,506.920882094208,396.176286945598,463.554852289384,453.461070301868,609.245285352349,739.424972528659,654.89504467807,694.866993490051,590.004628451718,581.901741914681,537.728008563038,555.2244120904,547.377135082887,453.445255611764,427.844637654607,471.189014940832,559.819259841823,768.925208902282,623.87642800569,637.810207829504,619.389681413637,609.919873974962,552.096542784226,562.665834425426,560.129168555544,147.906528607886,179.731884604691,296.733030845298,705.714758447437,787.652717559561,847.271160016945,611.76968545056,559.154443009697,559.728053730774,535.498944619854,529.58256932532,520.983261251539,15.5229242434631,61.0897393106449,41.2323431484265,480.233729016741,523.279285575676,537.469572101848,825.746104970326,659.164647146707,519.807452223347,479.041214779611,508.10357459571,324.308728932187
,84,707.001951054786,394.72748972086,399.810185768174,471.895865585272,627.659454343172,532.161550887554,601.174239101727,610.379048432489,492.011239200272,472.47678546793,499.180461440325,459.879879976504,778.558040183368,464.7110438602,413.938683213555,556.37609154813,1421.98652982156,638.588899153102,620.034224594566,558.898223619877,545.759910589575,576.996048427954,602.555552118196,544.327514038576,566.730175564974,477.657191195317,402.104740711507,507.347206955324,947.664190316545,729.927234871849,946.568949894721,717.005822058945,623.03094686208,576.189515808481,673.499295247669,608.096493387365,482.192072947864,463.466408852418,453.140505421669,651.516262891099,944.028056936084,881.33418326249,804.866380779327,775.501416897162,696.371963987895,506.407015920828,519.676409939579,512.400808009575,395.585781331477,463.775625902284,453.22724867647,630.261865170968,766.657341996539,676.764209162208,724.558083163425,612.291203655941,604.947152573641,558.278998970381,578.839585721099,569.319572458282,456.185635798404,425.329339887216,472.731097678027,591.575253049109,819.658597328834,662.624212562705,665.967613176551,644.729521353495,632.839096904263,576.193945835371,588.520294281341,584.989913812601,145.16958952483,175.705402983077,292.220106668623,753.732528307524,832.454450968989,893.790118175881,643.69196383408,585.261210693545,581.85196123947,540.64753598167,536.759386160611,523.041680915579,15.4531326047626,50.0922931885244,39.8273042111455,496.427149509962,536.379342433169,552.902943683454,854.400574596594,670.770408066291,523.690248912339,480.665219357019,514.90331424954,379.072359603851
,84.5,753.560203199004,396.210437265547,396.843930452708,499.230818335362,670.307506620739,565.358103831706,605.67019816023,612.578822192204,494.885927176311,478.299573372496,505.998218402214,457.24128674319,840.701523523723,467.858024358065,414.335585837222,557.463013678539,1471.63477543125,644.232012792788,654.704280945354,584.329284716391,568.986165639047,596.851306698712,631.370324187993,561.184834312739,589.80295334503,483.111684606815,400.240434086187,521.901067970368,1010.94931391685,767.966107376851,1027.09812957021,773.512618480481,662.984835891876,609.050053712785,728.896296545984,647.017255732302,485.471136776775,467.345876508569,454.770301146174,693.813050205255,1005.03545242011,942.375452555233,877.793380418348,844.137892443555,754.892865097631,509.943847759825,523.028652314808,514.757251620801,397.848032593542,467.737127460773,454.378094690067,663.889484915428,811.395272026764,716.761890436793,757.025610667999,637.138645764471,627.723669470958,584.565287172124,611.166746864701,598.007063829715,461.586439829556,425.788476959901,477.477184225128,626.9526084186,878.408039037899,709.696615282885,699.998639811051,673.782478698887,663.879385806221,620.31270076298,630.809411613151,625.967994840444,143.172763170435,173.805700028012,289.964127519255,824.711643814501,899.526797450228,964.849688605176,690.4990273625,621.832623864428,614.599694188495,537.876522571797,542.590712815149,524.651994876871,15.7465236685114,42.4774125675774,39.026450327468,530.962863581572,568.734695615734,588.321195456079,866.965272141873,674.71183183821,525.532649793844,484.603346467043,518.764258648967,425.146717497093
,85,788.199322926857,397.476171793732,399.738723637584,551.970079636872,737.220375221792,623.783135344546,600.478588076613,605.372134259616,495.41367822367,490.770212097277,513.959442745848,454.6174679864,912.687423678552,474.36876682428,417.825269368639,558.679626628564,1467.66435486255,644.057482684813,692.706566865674,613.74114141855,595.319475888492,623.615445662631,661.242179304731,576.839202662484,613.318284902551,494.714085552997,402.913332359285,542.545373836336,1077.76579503233,815.545067140845,1121.35138647059,836.517279784086,707.71425882406,652.575822788313,803.329222611958,696.856884242117,494.222091544887,476.509069610835,463.859100519184,742.177724541393,1074.36040053064,1019.26688925346,980.888922963066,942.283547033184,829.437211416824,511.669556631738,529.421922368881,518.922900449417,404.972549191261,476.004254999538,459.345164656607,716.656905417252,891.660756877054,782.422087741658,790.849739824421,662.854836874197,651.154981292856,614.757543187567,651.64358075423,633.316404341252,470.344197864114,432.336011750792,489.305727111796,664.979550959114,946.476803233866,761.585881409709,745.417150674475,713.546691237324,705.206218980671,689.179448592194,702.863109898383,694.428801196987,141.609110876396,174.90752018208,291.689337970393,919.116353419548,995.887171525065,1069.8975340541,764.287689759076,675.96161741402,664.289917334463,527.371263263626,547.744035079508,529.033576899699,15.9032228751454,38.3517599196531,38.9612777243847,602.228762862106,640.522130399605,668.487050416653,862.179867813791,671.433239474657,525.315879073667,493.286242417262,524.37528366795,473.465661691095
,85.5,818.850727613723,405.266293616783,407.270452488375,635.777874873892,843.676613547724,709.545070915934,584.327736097618,597.01533671886,499.109014285707,509.099035223187,527.180529647819,456.150204954758,975.5573400774,487.772509814368,427.608450261684,559.875222135058,1408.25037837373,643.661224795986,733.126850899001,645.777961243642,625.345317871031,646.151107947549,687.450712390415,591.041201043098,635.153828814619,514.611862361345,413.6408663663,568.193756677575,1153.05415368917,872.623213417487,1224.25449816061,899.467292514597,753.129598496932,696.200068785234,876.967066223938,747.73016521525,510.478397482074,492.022077103892,480.784155359658,792.945398730993,1155.58325592377,1111.97306125387,1091.96235817106,1047.58257984211,905.15383757672,518.111623432312,540.684048567152,527.178975114214,420.038322054834,492.19455814212,475.154795640326,778.585214462157,994.498681497862,858.592304601701,823.638843115978,686.182903098255,670.949832745885,648.746069794915,694.139238649082,670.485889775666,489.55414545921,446.75656486506,510.651743326636,702.65873534688,1020.54136698617,814.020417821789,800.884356588772,760.495499214054,755.784448524113,771.752415505471,797.710395319618,790.006326714666,142.086898337299,177.247859319162,298.537960212854,1020.81972378808,1108.61322066477,1192.85016989215,865.648022581087,742.46360193688,725.180305476981,516.077153236403,555.179282480883,537.965716789265,16.0415531405289,36.8562249039694,39.0931505438706,697.718485499016,746.27272378018,792.935160303913,845.31640271296,665.936439099864,529.383196164201,509.143551900238,540.438155211033,523.343103982497
,86,847.365249494379,420.993562451189,424.139751436691,732.387533981219,979.557352216605,809.261830354678,571.885743886573,588.835349882459,507.640463760549,538.922680948292,554.208808917508,469.273258355121,1025.4030589447,513.465672455444,448.752054672488,563.635245931104,1321.21630673133,647.316878171114,772.750096096744,675.478200671437,652.243320550632,668.092391635536,715.954172285209,602.234902664169,662.287949343214,545.032908448512,434.272720063232,598.273880885264,1238.39489738988,937.545836135759,1325.35576468232,950.844676607133,782.165485476359,740.312229809647,944.293466682056,800.748496757204,539.767995165219,520.231067609168,508.562485738131,840.678698911424,1243.42695787076,1212.28572671983,1192.16811446319,1140.92943731126,970.985394548461,531.667524140434,560.381302733735,539.728050465696,445.565894432459,521.646345499712,506.644420940526,843.239848019976,1102.57930414364,940.203361176751,850.458723940246,708.127387700465,690.086432202744,689.472916580156,739.179811650236,710.62996044281,524.272064196602,473.90773869441,545.695515619047,732.447336144623,1083.05804701427,855.893988350942,877.808864663361,829.472502003076,830.361778245418,855.567190530695,895.973842542062,893.698702255406,146.660054564538,183.909834154567,314.39395134178,1116.08027283948,1219.20925448182,1317.71553626765,971.882863617531,807.701379990866,785.780985889395,516.284869225717,569.059279637557,552.131395148022,16.0885076299221,37.6104916584731,39.6437458910325,793.742736421031,860.209048248017,930.73787177969,833.194911961462,668.728568151252,538.697783871747,536.520288386156,569.59805749688,564.165950735306
,86.5,882.536311016845,449.4767571013,457.032029079563,829.739358138144,1117.2337357749,911.220506417098,571.903925618902,588.649090547778,520.884175877393,581.404699044832,597.090379966477,498.432628646901,1072.4214149971,556.914433425041,485.717661623792,577.321225334432,1239.58691573145,655.593926286507,805.45428445229,699.336383677462,672.98145321667,709.390690308289,758.570345300468,628.017283772641,704.889545532389,595.094377636966,470.2209777418,631.725451598187,1319.38624298447,1003.47689138111,1384.27547963132,975.693586018948,800.400882549069,810.575682428602,1017.02720123302,866.658303129592,590.118389707673,570.014939496433,555.993782766246,872.422866548527,1306.07068021611,1291.81390193629,1275.40063440919,1220.08660328926,1032.19655898767,546.734795794534,584.959442088338,557.071787982863,487.700669877809,572.901013620818,557.449022606127,922.200464656347,1222.21150486747,1036.62025818292,891.357228182581,748.07998015774,730.038122440129,754.691220057416,805.896051467616,767.29407627061,579.029754509074,522.068797802206,603.552859606303,758.422250615729,1124.84202601793,887.73661720386,1006.78411531459,952.179096447394,959.16066518951,931.564793868849,989.888187664679,992.64668789448,156.346928126763,198.13763947622,340.902936854124,1190.25109191898,1306.46913260186,1422.45505845629,1068.274028036,866.425338629309,842.762020824284,531.139849449194,588.652815447749,572.989129548801,15.6433160589164,39.7867944606355,40.962314229801,887.032343422577,972.731618820316,1068.98938436724,830.374419434172,681.533722248148,552.241459096594,575.933093334014,612.164687000065,607.246079667743
,87,931.016885093408,499.59101846343,506.621200707159,938.878766562606,1273.74318620435,1020.6601405312,587.979445637273,611.825527355008,554.932834440142,647.275885923768,668.392935910164,550.229159382236,1093.03554648558,625.568166354886,540.655747377451,610.636731621698,1145.94946130403,681.111111419902,844.515364220223,736.413111269445,712.609708286536,772.555467353604,825.233429445801,690.908842501106,778.53417053992,675.361746801902,526.831706967055,678.342631248515,1368.38179592181,1064.53012234382,1396.23489345758,1011.11521585503,841.846833530725,932.696782203705,1110.50324015136,970.190707750071,670.168891031372,648.825371749234,628.229888195149,918.239463976336,1336.76791516391,1344.31322948596,1345.81942318436,1297.31704283405,1117.30236135909,568.168216963928,612.267705508962,577.958790280851,554.699984118495,654.098684139271,637.334269523714,1048.33065193759,1359.11266781723,1170.47910033176,981.936104944771,837.978690339783,829.636988355065,885.25320528652,922.067357181604,867.401697720719,666.328158560896,601.023214128165,692.445645426924,817.809651895929,1193.32542225518,954.114562860188,1264.39789977082,1208.10554161054,1218.3912079715,988.73961837515,1069.68571977036,1079.61719961346,175.599670228751,223.206230526817,386.289393959118,1246.83498059608,1359.99645298809,1485.18217515039,1157.15626699912,916.005231119621,893.957497928168,568.58399920778,630.015130590101,613.780230410168,15.5394312533798,41.7801255570753,44.3127317181041,965.205491851858,1074.73664131139,1197.6161722152,838.76965462687,714.122183098255,588.571280018416,648.803358104923,691.093697745815,688.328603428159
,87.5,983.062235074545,567.356979796991,570.734095623997,1048.78360937379,1451.10403231073,1127.69154691384,648.489747187573,684.410043439549,643.888050422244,780.771386703189,801.431211267027,657.138605551537,1066.12719764627,712.84075896937,612.185546172646,687.860825883771,1023.29996340071,754.05178658464,932.406134990104,837.430944103738,830.322585473026,866.824507666406,925.044870208864,795.071843563178,878.851877442711,775.200099143879,599.078809539759,770.339782982943,1368.04447683936,1124.80990162132,1398.23074297223,1084.16912127106,922.961567699946,1162.84532417497,1273.93601977751,1170.87765229716,771.537538926783,749.225404130319,717.466826011153,1003.3705622486,1360.78101908783,1390.87832461869,1401.83988422753,1376.06445436403,1252.82919435547,600.118887856446,643.299620236188,603.981799355931,639.000242536921,756.763847647558,736.529686057779,1229.90942635334,1485.41189699303,1340.58642884794,1167.51763393168,1056.14631159255,1082.33434194179,1156.64256388276,1158.32461631883,1089.60028306063,774.983455185476,699.562664783803,801.241093698013,942.160790295619,1308.93342544613,1082.14675687048,1612.45986134874,1563.08077508369,1569.60736157569,1021.40939259321,1117.08150138226,1135.84430358269,202.664472656714,256.099959580176,445.560631336117,1294.69929987858,1372.07305251294,1488.99882133094,1225.46581826938,950.89538324868,930.382112403245,663.331769361821,725.95038054367,699.258702085463,15.9065502879529,43.1591728099638,49.3403468664509,993.505563316926,1122.51405266487,1262.30984461903,874.991842878207,798.460248487723,691.966315049427,813.110338351314,852.587948764423,843.444992703202
,88,1029.67216220077,646.539381267833,646.786189853061,1134.02604555541,1604.94051190315,1206.67869650561,843.255622198352,895.665742256062,849.087171591122,1075.14288753049,1096.47714033983,931.699653638477,1013.21561712608,814.704545410513,701.905461229778,873.669404606324,881.45142422605,952.375398374325,1176.90553761244,1113.31664163352,1124.6108808347,1031.14794920231,1101.09330324293,981.09570466365,987.251809509708,889.958209503586,690.468040139118,976.278632292485,1320.72443438386,1243.87270497593,1401.47629527822,1190.30155638131,1042.18253822404,1476.86283951222,1512.26162967834,1460.11421090177,886.821639066427,867.322211133372,825.85524468633,1118.4443682253,1399.13398960689,1450.67596941007,1472.75301815809,1484.85060492585,1458.52649096232,642.840951125636,684.66545365248,639.032200922429,736.113974969098,877.844183558282,849.929354455249,1476.77768979783,1607.07191430086,1558.12318312125,1452.42115824938,1399.72839678516,1466.27759706233,1522.29325448875,1499.38314506826,1431.78646975761,889.143836202609,798.553744673629,922.495361175662,1163.41920384116,1471.14081413002,1300.21179415931,1935.46965770513,1905.35672688495,1898.78185804093,1041.39436040854,1133.09060431629,1159.05181817463,228.618770142721,288.256037058739,501.41505614001,1358.11985064599,1363.21816790047,1456.36125891146,1255.85781040314,969.985064823034,953.968756445115,871.006214657973,912.863824688495,871.687640290251,16.2283867387616,45.0810515299178,54.5453433383498,981.885871253754,1115.58790261224,1249.81220905153,1016.45989488475,1027.26508025612,909.104780564822,1156.01383150342,1206.31688158117,1179.33290131067
,88.5,1078.17569715226,770.784472034924,767.909927648594,1198.27793162262,1705.6783994859,1263.51024207416,1168.11435902687,1253.21160599224,1176.42113517299,1485.35113716047,1519.89246187571,1364.83078528718,936.632909187954,969.186385390797,852.152944188134,1174.65646381215,724.972049889553,1261.76427017523,1528.57722066536,1517.08381395984,1546.88870742594,1244.10161515379,1324.25115667039,1235.95082881749,1109.14693842616,1060.14255594541,847.471587884266,1265.39827875967,1219.44448286431,1400.62740902186,1369.59553465581,1336.40305100064,1231.67478427568,1786.78086872805,1752.67229647589,1763.07608413068,1044.13187461181,1039.34477450966,996.520690869539,1262.59693260448,1429.16807770191,1504.74340959374,1551.42362833583,1606.90574434015,1687.51645138485,751.482722327376,773.303682964978,710.041059950717,877.167217579341,1054.05224035422,1016.73334665786,1751.94707229748,1715.91843801086,1791.02932448049,1744.48373518599,1757.11011588786,1856.58194508743,1875.8856643506,1840.1965132702,1794.20430212573,1034.48289958229,906.031978545657,1087.53377666937,1441.73383563217,1660.53892329719,1581.16058677973,2185.80779155378,2180.93773404418,2156.088718312,1069.1553216357,1145.43429141993,1175.74339951369,250.241576734338,316.837270009962,556.445871181849,1419.00006231329,1333.433759692,1387.22352354571,1267.12981723533,989.924491388632,980.620447416769,1139.26912034578,1205.50635340812,1142.74659320024,16.4868958495352,45.2989758662526,59.6049826293976,970.470892552199,1100.7470976887,1208.04576122053,1235.11496041066,1358.32417591746,1236.69156762108,1611.60983815853,1687.80057423259,1658.38607097643
,89,1179.31088331216,1071.79872230687,1084.78595852059,1250.14572233517,1753.51278954424,1312.50830662458,1512.35209276223,1646.3427849432,1605.6506987277,1895.51016959297,1939.15298514378,1817.38376618006,841.031082977673,1298.59970722823,1200.21299681059,1552.4121208619,567.95935331622,1601.8434790035,1846.20182373579,1916.668266359,1980.38801228599,1522.55161853239,1591.76165268561,1524.98041764309,1275.82739682425,1392.15409956273,1178.5123312285,1567.59228304318,1041.45457404313,1506.3436529448,1295.16178649435,1509.28228107066,1466.07390501907,2046.41791624174,1941.74112371935,2032.22696930997,1331.21970995462,1358.55642643112,1333.89476950117,1448.38101655097,1419.72691043709,1519.11473278643,1574.89338177939,1671.40463239045,1858.96910467712,1067.61565625853,1053.28239106044,956.300674667104,1135.96177733748,1368.79394481412,1319.1089942164,1970.4495379836,1742.62336295458,1955.85217782504,1950.35500948877,2048.5510373169,2189.72501176089,2169.19601010683,2115.29079959386,2109.74249775195,1263.54953446604,1055.60672283037,1359.04924649169,1685.57339753601,1805.01291704207,1827.84129439724,2307.0996509846,2329.88943394856,2281.48161817622,1118.30041122417,1169.54389926347,1204.30699420051,275.141700668108,350.13212208753,631.349813679279,1432.56407264202,1256.20015317815,1259.63752500829,1281.79685788591,1025.42194904448,1020.77379947433,1394.72346394274,1595.70294759315,1500.8378775215,17.4164684638695,42.9047139083893,65.8130694047759,967.419030301973,1086.50855050264,1150.54806136497,1434.94288452659,1679.97786518567,1620.89691692958,2058.28789258838,2141.04287221742,2150.72215155414
,89.5,1293.29053934706,1498.40693106236,1563.11550208594,1252.70174954923,1695.3082419146,1322.69374642569,1813.57479987951,1998.39382856972,2058.35203476033,2254.83182983472,2297.7404698544,2224.33979584168,739.956758871049,1730.31516622249,1678.69641899887,1941.99982630729,430.680353690078,1919.60318293707,2099.58485082568,2262.86944575917,2362.8343307362,1828.77588583434,1871.88269002379,1802.46775992436,1423.23288417035,1806.15008667419,1604.14439901404,1859.4995882532,815.496322941033,1554.79081274328,1177.08675272713,1623.82364322877,1670.4620515279,2181.08300830309,2017.55315934865,2188.02292049373,1686.7221801808,1747.28184994077,1759.4832761603,1583.29098205934,1345.69827156221,1462.30412351638,1491.45401837745,1619.18146742045,1896.71884305604,1544.24500871352,1516.12881570797,1408.75274421431,1443.61358059201,1739.95921138186,1673.64267020281,2039.89692959237,1630.1857699698,1969.68846796292,2015.89661127944,2212.17941329319,2383.73183761672,2313.76819444827,2255.28551457431,2306.73253421115,1500.21153403416,1186.98668592925,1649.98684067341,1823.43869816988,1804.70119427273,1949.5285029419,2135.53152053708,2185.38250346007,2114.39258790678,1180.72952576804,1191.86773018443,1232.77124761544,290.013100336346,369.345647286387,686.456132101526,1370.74957162306,1125.7720890379,1083.99088534353,1272.97982281577,1063.46268289132,1063.23639946344,1616.30159243721,2041.38838773257,1930.17784825155,17.9220605121762,42.018565876111,68.6442853299951,964.819297256292,1061.02902217811,1060.32158558761,1593.34628993857,1955.68709741135,1975.58771180518,2434.40548703923,2512.91879867676,2584.8120345288
,90,1356.44062394089,1889.86474408241,2021.9270909865,1190.76438788095,1488.56061788349,1282.35128526388,2015.49916409533,2241.31891470859,2397.79451756354,2461.44663574212,2513.51720400176,2512.98427961625,641.330498689746,2106.37887235241,2113.47473954576,2234.63932279479,325.299991469411,2133.22543615977,2222.23285795909,2454.44725843878,2566.03930580655,2032.73594700138,2053.66318350006,1989.42027759228,1491.57778841384,2155.77367444374,1976.38986031355,2053.67587763533,600.303316964916,1540.74605650918,992.895660979016,1633.88677136106,1800.13402443798,2061.52520347581,1885.63766496138,2108.87492750009,1983.17287236964,2069.99841405831,2125.12928794986,1601.76874402467,1192.28393812044,1316.77667847697,1313.36509109833,1451.5295689172,1763.7338320442,2015.80056568389,1989.17447591778,1906.55666735644,1691.63171531035,2039.9518205552,1959.45674242307,1936.31503073646,1403.65301877604,1823.76716452065,1859.37348242546,2104.27133623509,2263.36819733406,2174.37193807194,2132.90968616743,2250.67234202054,1662.88448088581,1248.3532407139,1860.61499082748,1807.24655374856,1647.21063151786,1909.83790294303,1718.27461762152,1783.352228737,1705.0103929342,1263.27552600272,1220.9335325846,1265.14680665258,283.994253635044,362.730351551105,693.67958291103,1228.21099102332,960.266828490876,890.588370772261,1240.53071834482,1113.01416021393,1124.65259170977,1721.04776517932,2410.29743896286,2310.03587779524,17.5331406343757,44.006487431377,66.1956457917809,984.93189555167,1053.97653021357,968.690582330806,1672.92996703603,2111.92187103526,2191.96552342251,2606.85107435041,2697.99423609145,2847.19847875358
,90.5,1391.7931016025,2226.72203794768,2425.35341937189,1097.35099081187,1166.93059384458,1223.83698953942,1941.70598545266,2189.00661008764,2485.73919014709,2322.57764532916,2376.69109046186,2453.87552270835,549.885022524807,2412.9219524545,2479.65577406475,2295.82037005301,254.039705483998,2081.41909496835,2003.90584319355,2274.12269363368,2394.00163732392,2066.38671150359,2049.631842329,1987.27345758696,1506.70376291587,2429.82548799515,2276.35827902071,1997.92313272471,408.016937497583,1355.18872969584,752.167678864034,1546.83004942874,1822.82935772223,1745.86047778571,1575.00838722005,1821.42285473128,2207.66162013478,2314.63577273916,2411.08604785036,1538.52576195422,948.808993553163,1072.61890163269,1048.4436681318,1172.46561755248,1459.5748607366,2437.61204377833,2409.26381367882,2361.0008650051,1875.50610705332,2259.61007501449,2169.49836662778,1663.34058189811,1098.53734179357,1530.43719970972,1481.57795967846,1732.31622968254,1872.33309129517,1826.21329695716,1781.41929840211,1947.60816228692,1764.33541832617,1270.04380339719,1997.99801093773,1580.51641484803,1353.93892058206,1664.86933701029,1272.05214566309,1335.64293011204,1265.38751102222,1357.71248884978,1259.39795680081,1304.3651927768,271.289334716633,347.768117408342,683.593246329925,1000.99663079763,765.140556396161,688.613633497291,1206.82304642366,1186.27393353568,1212.93385879081,1587.96307894128,2571.64545586497,2484.9819235781,17.1015202454754,46.3794498045859,63.0086850656187,1035.47663964082,1080.64921308245,908.180589336318,1527.18226274179,1969.69786866321,2170.29359827687,2390.75402204177,2460.87322824127,2717.44313682229
,91,1374.47662111299,2434.37002122316,2696.74791698917,986.849518041405,812.215696384224,1147.05394314079,1578.4419404636,1819.29182904019,2294.76236588846,1905.07461586955,1937.35519209638,2039.65858850051,458.023556587478,2557.86238759435,2675.19253195089,2105.196786507,210.720648799897,1784.27922306771,1534.54057623327,1804.87826021805,1936.78636179971,1954.76048297263,1895.59636412214,1823.65603358933,1434.35231648319,2537.37327355189,2400.25317277593,1741.73895112532,251.411047398982,1037.98552428333,513.33444475232,1343.58543084952,1681.42462170629,1384.73127493015,1215.20737835978,1457.12640902649,2290.95126912035,2392.84839838691,2518.6057901671,1384.67717654591,660.845641065101,771.408664550261,738.697008319789,836.152858081624,1073.65403742866,2694.371004178,2693.80245938049,2711.29567324397,1922.34260910204,2309.24555539164,2212.83291886023,1284.24612351111,761.856568205118,1150.57160462329,1049.63781506248,1293.54615131437,1423.85982432357,1436.69025841834,1372.26941416879,1552.05907069212,1741.98214888786,1219.61291577368,1983.06100386485,1216.40204288085,974.922907310075,1271.17790036735,848.896951944562,901.954297849585,846.209987958139,1418.5723511744,1267.73070084332,1309.31301167428,252.556037399146,320.909011112466,640.442073562044,734.667415613368,563.475451168145,497.800626927296,1166.47898585816,1259.75638795119,1302.58274979552,1303.16421025674,2490.59641907063,2431.29574134913,16.4800209340211,48.2420828478862,57.9954494186825,1065.85102858268,1091.93905759876,847.730146673533,1201.99239145058,1600.66390296137,1905.93199486593,1901.99235955701,1912.37163350572,2248.64384791075
,91.5,1177.44395039046,2230.70715066526,2519.7603264424,854.977080793282,494.893122831792,1034.36335379374,1137.86737998436,1341.60449132649,1866.76009733321,1427.64396295626,1440.62664270041,1531.77069228532,348.458982548056,2277.55849846168,2411.22168366284,1724.67794060186,178.565521076584,1398.07328019755,1086.6459789486,1304.83390141893,1419.48388664755,1627.68754364691,1566.42165892728,1514.89642428705,1185.86069389412,2236.72823420459,2113.27396594488,1416.70035168148,158.747466716024,747.87651844523,325.136303115086,1054.92218573526,1403.76187850399,994.221926936977,856.502447134442,1062.74516739056,2027.86865544184,2091.59774286109,2214.64977162823,1114.4874574079,413.15108743824,500.373832275768,477.328248196406,547.905036280522,725.143240046027,2515.035365696,2562.42053044963,2683.83362364521,1663.85351901152,1995.44841014435,1903.15862102611,917.713850879552,479.823359927977,799.015050050875,678.67820742236,883.92991756433,987.866235654332,1046.95869967517,975.558661802552,1147.98900196645,1467.83615429612,1005.76782016893,1665.0031302133,862.741471611697,629.83722967491,885.206452022123,480.3482775633,520.280720153414,481.25609411279,1407.7010588364,1215.31226121899,1247.87415886504,207.785133993974,258.362024175473,513.873091383569,510.884069313923,409.899619424618,363.467528616379,1094.66620014641,1291.02468009697,1350.98078457564,1004.4432619153,2178.50871009238,2167.19700903362,15.4140804247514,50.5259520790032,47.6443232164528,1048.06584639445,1063.90507610861,771.986008264376,883.79015247351,1215.72331765304,1498.02063743663,1375.18424348844,1355.07008747496,1684.69216367261
,92,856.30083513143,1694.28744393818,1945.3451219664,719.439810689773,248.240490292104,899.50592321149,718.887802764382,869.005905330847,1314.48695456915,946.796981624153,951.562867065808,1036.80597019625,239.078491187117,1692.10547471592,1808.41268647813,1244.88309899732,153.934700661167,982.680293909187,683.208122140554,823.208792938831,905.914912134266,1146.74933738444,1101.24597493999,1085.97306995287,843.594329512824,1652.79180381455,1556.87244461573,1031.37430670258,119.475679284141,497.545129795063,189.588509807125,756.562946986869,1064.00485807983,629.569188139153,539.045817253631,690.03693406545,1507.63430936142,1537.787560123,1633.38465323127,815.874469693493,234.269403649501,296.918397535299,296.737117253301,341.038292724802,452.038509609229,1977.81855257638,2034.28388881456,2210.38765040371,1212.64647048014,1454.23762900299,1379.95858548094,616.175963533674,288.627249976203,523.893234565807,388.584458864716,539.189505119556,617.095053011243,709.268604397595,635.858760624936,789.535500615753,1053.46104881431,710.06479654025,1185.30088793591,562.374598310915,381.421480949868,567.168728699248,256.169797619604,280.289163718681,258.366040997482,1317.41587966134,1105.08105981191,1122.419189741,150.275727854327,181.852705321848,355.528113447563,347.620449492063,310.706731787179,283.584578872012,994.221588203814,1263.38818335733,1333.31520062318,697.805636591762,1669.13054291012,1681.7212249361,14.4180686508809,49.8189970673911,36.8652258907296,991.592288548013,1008.02140913106,701.053137882006,592.76896365828,839.719968474957,1061.2566519185,863.206360232093,831.628813232698,1107.17228256606
,92.5,570.954185304887,1156.77151296223,1340.92218976371,589.49382260519,99.3821669597658,747.569755343499,353.116726736195,451.600512231327,804.39413393013,533.459963470708,528.556285594997,594.392839445396,154.015888205927,1131.19948433381,1217.87425514976,796.05557403303,136.59103478973,607.232008088421,349.505545999764,421.195415332642,482.400347843324,726.866552645749,689.353029994714,689.342400246253,545.916665463166,1098.2845931868,1031.93725651156,662.695257195329,99.5762227865285,285.505707780923,107.529455205189,495.546491833855,711.369389177029,383.31974803742,324.628099844435,422.162335823716,1004.16748521161,1016.17684534076,1081.82918552516,569.8275697439,120.735445759919,162.001184190123,186.293843716318,210.542825379024,268.731069005496,1397.13140360086,1437.65565627842,1600.97592441592,796.709006064233,953.204354889304,900.10445899657,390.372421252397,177.074218758164,328.254224119832,212.504061089292,318.665639276878,380.339940857919,467.77519388316,398.512214327507,519.883696230633,684.210670679768,460.819266325437,761.83122147906,337.47007909445,226.380398322566,334.28810364398,169.257026641466,180.182035972082,169.074570433068,1130.97790710361,925.630776610037,929.327822697782,105.88822674303,121.895021379012,231.058201491069,241.300655764828,250.070626761529,236.471608165546,856.907155567461,1150.70020054055,1219.75476466748,440.389773198714,1122.7084041722,1131.86032469242,13.7784419310065,43.4783352924467,29.3635664337476,884.482749841828,913.439142276102,631.251445909676,344.163723821155,513.780524928644,675.734121408108,450.460300169884,402.143521465599,609.222702093636
,93,318.383063668679,659.178846204989,777.917203839941,449.081949070892,43.024306637308,564.993911456372,130.800361138023,186.980784574161,418.285755665549,293.05448655618,281.971556892843,320.931578485135,84.7741480879639,620.520148021954,674.160163895866,458.035154329676,121.244170451444,357.584753631748,189.589358270562,207.998975208316,247.529942372274,403.700150091747,382.961242802088,396.781667015497,292.0594010332,598.043528824376,554.680254091698,413.084594652896,88.4250008061747,167.820351587057,70.1700225096677,287.21342545457,414.673175902886,240.158861255452,203.314558193949,260.874625705035,554.797044117603,549.686232191963,585.377556591114,356.55949388575,69.6446854585622,94.037956154753,133.49388331994,146.893463324212,175.9357655744,847.642713402649,877.536781146014,1019.25390590504,426.028006701215,507.606191898619,472.939246457834,246.322584786564,121.509884557205,208.034579111702,147.7893910948,219.244895715118,262.305664907903,309.686355955826,258.617291345259,341.497913913432,361.415236948686,243.939309848472,390.297672141509,213.330279565055,150.917859268931,203.536280749741,117.051805476889,121.314992310286,114.361623199484,866.207947599951,690.446613612819,681.324349470872,68.2613451264956,69.7043101862225,122.546694941244,189.470059738835,220.521176591326,212.45993985624,678.631762560175,948.291381733707,1009.17913681469,298.784739278774,689.613105963272,696.002970715346,13.5097459735388,34.6189816789384,22.3987946645774,721.209377444054,770.188216814422,545.031902558216,209.984235386426,325.826940616785,395.926972619546,235.745618486767,190.819428195667,311.938865796748
,93.5,111.071800100768,236.435124047441,289.815683770099,306.987702490431,35.5065274512588,376.252498886525,63.9805015305984,88.1216327317479,180.717255375281,197.349799431521,192.970997000007,229.246344442331,36.8047637511785,206.141191248755,228.050144168744,245.536134209573,103.411846783775,227.667804297097,158.947894916436,144.654085862845,158.200192889993,167.707001786658,167.790382623727,193.929700197117,100.27335817178,196.685898211921,177.457247311216,259.743713596434,79.1454040381277,126.178713779204,55.8933051657306,152.771668430652,213.725897720704,134.831484686365,121.745551620001,152.58368675515,191.10378838706,181.108529897042,192.096938892252,196.064247486237,60.5831038284335,74.6370500869074,115.829873186334,125.66785924385,138.401818084612,384.357715811345,394.425026223477,498.085868248922,135.913288535188,162.711290239198,143.572331704374,169.201367574446,98.7303492345454,146.819474456972,121.307046765898,162.44372955578,185.179564945666,193.480042865191,164.306655928202,219.684174711776,115.548470019644,77.3949262123535,112.028966861674,159.491754779834,128.873040121173,151.931138560388,80.9440297354757,82.8339710458799,77.8823840283637,585.959083468938,455.169309429106,438.183271379025,37.2520176833698,27.9392030044754,39.0463862671867,171.11454832783,206.779502654393,198.641232353101,478.276046539025,684.841953075692,729.036667288808,229.461676042424,379.968049788557,379.839722441398,13.2424188953985,27.0168618655318,16.752758065878,551.739595099887,623.605448712143,463.710528399908,167.406147837284,243.444030984121,232.911115577518,163.216347601581,144.965699603115,193.466505801011
,94,17.6130721700591,35.5282508030849,43.2241469111107,220.121081934241,32.0469177972375,260.25513936764,49.558007714819,59.9733077891844,77.1242766713715,152.728668704618,154.764837221884,203.417592487074,19.3174975952765,23.4361737728193,28.9834084721457,148.850128831779,93.3804477518164,165.507293431647,144.253874996804,118.569402618546,121.954535256828,62.5781069300957,65.4785092644867,86.4688187491264,19.4425209404935,20.8326826226527,22.0326858103531,168.702094922902,73.0726362827073,103.373005081986,47.1868711585636,86.8857317007029,104.451456631195,78.5693790519416,74.1714447288149,90.2135729343394,22.567249714898,23.2574778696472,24.6545110362165,121.262066279388,58.4589737958598,68.8433973868654,104.195804287995,111.698089785083,111.77853405343,154.374977721219,134.933321495682,179.765480297188,16.5771843847065,20.5782642096719,11.6732437992165,117.902770729605,83.7469513666819,105.782843880278,102.413705006171,125.783252091268,133.95579849274,109.481366405033,99.3022145601021,141.396114208042,16.4360804523749,11.8657947472188,7.10820495011217,132.207908940543,120.890856819478,129.945513544011,63.3301995177713,62.8176568029021,59.9248101724095,399.266355267106,299.53288559012,281.627642547449,24.3209505293858,11.072627900547,9.12812582776326,159.035088526592,196.770442762498,187.97221851188,345.53899723289,509.319179307965,541.192248328253,188.323056413103,203.619837881355,185.377063227596,13.1252904484247,20.6620170380307,14.7953543758199,445.609512891215,532.356383932196,415.243430958959,142.930867071405,196.330785345731,165.816029713097,129.811882768686,124.26624295489,143.071038116241
,94.5,15.0181632294442,18.3948507808553,7.82397030245761,117.071687954158,30.4004738317501,124.894010846921,42.5553384982707,43.2123943900372,51.7054010887744,129.478193967339,136.937677606248,191.008558943617,19.5271484018862,17.8165821970485,17.0586407111338,109.494195675879,82.3212410214504,122.232515723885,122.847091410267,100.640440360109,98.1808844283559,57.677073447565,57.0306788422118,68.6532921621427,16.501176784891,13.4709281269367,20.5303019021517,108.750438462202,66.8761434015861,77.1025795991033,42.0250232973109,58.2496132304992,53.6437225809525,54.7065702603476,47.1533444895339,61.4091788098179,9.0394200644123,16.0665040903706,18.6601613578857,85.2272765299164,56.8064633913895,64.875183779874,95.4338987363366,103.137021013472,96.5856375166446,110.309517231919,82.9060616283158,95.2256766336701,13.3093218142717,18.2994809315942,8.95482763778784,82.6739182323703,72.4491003979855,76.773216639793,78.3224450607612,87.5512583273162,86.4618914589748,46.017512499263,43.766210400639,65.0557535796352,14.2353290715619,13.1939619407626,10.8118561421945,100.849693266505,111.32671145941,107.038810411399,55.6783261246252,54.915126619052,54.4505825248214,203.18877209411,144.116534478424,128.184339560254,26.0780265242843,9.67408632157765,10.1535637347844,152.83346982681,191.010627059548,180.771129029317,187.764450904193,280.890643630763,295.512267224333,158.458232285658,141.687729771881,118.610632675702,13.6235898372354,16.7016607699276,14.9572702457931,350.178111167136,465.289744343134,394.301567308939,113.721033698303,145.424294456855,116.356829003453,112.07743179071,113.53261020563,126.76720262445
,95,7.52024307215368,7.43191572353578,0.558137553276765,12.0414673521517,12.7609746010387,4.75703955713709,16.7298405860331,12.7344150651063,16.5382839237893,47.9821006333007,53.6340325448757,78.8020840832951,8.34780542900751,8.9053191085502,6.94391479893022,34.7151316265528,30.0873955721912,36.6368258875458,42.6344598207235,35.5305769553363,31.7829421796104,22.4989059918227,22.5264542718211,27.2531784489291,7.71881975243741,6.50661875803837,8.99475226075583,28.6919112654638,25.7658679171728,22.9982236970869,16.2591945040191,20.0329796015473,17.362351066384,18.5648853514639,13.0662828160465,21.0283114822154,4.72212185569606,6.48847665982987,8.14098775151774,24.4419631032866,23.5552795647967,26.4456112512065,37.7151285024987,41.7848319309074,38.2599189892304,41.4992510444797,32.4289028079864,37.3313944674861,4.92107801849716,8.5898947534306,2.61296018712858,27.2166978545459,27.7698407530678,25.8931690131287,24.1643902413788,24.9936162475447,23.627009974048,6.88429322140212,4.74417285306345,5.89921804436744,5.74755332184213,5.74762453775702,4.99600950763784,30.5132174380186,42.7964307456878,36.6388992008343,20.9477756442544,21.2545314632489,21.8475003257488,19.8607649529977,11.2281401056032,6.7179217183816,11.7838376108089,3.18854458944804,3.55960173184587,63.4335685278463,78.9830608238289,74.1433475574264,20.8667602496386,30.1889632195362,29.1148274675056,56.4805267005441,55.272275954616,47.9515741459604,5.93169675353352,6.64176149093112,6.25355519657342,119.375833517794,179.812818327866,164.882546939967,37.0754389750558,41.8260625125517,32.3210519676544,41.6227512205477,45.1329002954176,50.0262957386612
