,Cycle,A1,A2,A3,A4,A5,A6,A7,A8,A9,A10,A11,A12,B1,B2,B3,B4,B5,B6,B7,B8,B9,B10,B11,B12,C1,C2,C3,C4,C5,C6,C7,C8,C9,C10,C11,C12,D1,D2,D3,D4,D5,D6,D7,D8,D9,D10,D11,D12,E1,E2,E3,E4,E5,E6,E7,E8,E9,E10,E11,E12,F1,F2,F3,F4,F5,F6,F7,F8,F9,F10,F11,F12,G1,G2,G3,G4,G5,G6,G7,G8,G9,G10,G11,G12,H1,H2,H3,H4,H5,H6,H7,H8,H9,H10,H11,H12
,1,-14.171219537654,83.0493434568962,106.396862093824,4.61997030342445,-45.1166712357744,-28.6050893951124,-57.5828099345399,-64.5062780401349,-60.9917315133189,-40.6842038087834,-115.810433928393,-419.408310761539,-1.47426333710791,74.0997959441193,91.9040429487513,2.04055774922199,-73.2269008728272,-29.8376577093786,-98.033083252114,-42.0672433231975,-36.9979965922248,-275.891537251082,-232.194939223204,-383.347390737124,8.07670634162787,90.7997971001205,52.6045621559515,-74.3788382847515,-54.0330506747232,-94.5229562001605,-29.2123541798646,-36.9690956804834,0.556898132356764,-45.0220159388546,-33.3994121621772,-129.224200214207,12.6384048879836,45.270284505873,41.5459219386776,-10.3297384332081,8.57460277172686,-1.51401481401899,-124.762120447367,-92.479467967838,-125.661222359708,-53.1318036886678,-59.4960731949905,-140.656095002369,-29.5879314816721,46.8851627956401,48.0447997858673,-15.4461460138027,-19.7954908541906,2.34980185092172,-46.6293267464371,-45.6283662972837,-53.8609187236361,33.8176529349475,27.0482575137039,-18.5480327016112,15.0179993754118,47.1959259450668,38.6281396214836,6.76492702914402,-42.9066334718391,15.6065732312873,-93.5448466955568,-98.4818849403546,-72.4550017140882,41.0937916376579,41.547553116111,-31.5016592921229,-14.2826189760808,21.454554238273,29.0235421020734,24.2589454133922,-32.6860079468916,-22.9689681652326,78.1791249715825,52.3127224222872,77.0102992526245,191.787617498601,57.177214097479,-61.1581370337626,-56.6310436863087,-6.59196612497999,-0.166682802898322,31.0062421810762,15.7877928075213,40.2336468876201,-47.2826855241074,6.08714479307127,-33.779862654148,82.8578824005781,5.67023013811558,-134.689630116396
,2,18.6811603761962,141.835013099324,160.106509199257,29.8424490393318,12.3507804274168,19.1702928793129,20.845373958281,-2.72537588095565,28.9350053185799,11.1073369792848,12.6999303475968,-125.571942472618,29.2864599255618,59.0565578780825,77.6151194723652,-26.8123278639632,-50.3853695113266,-27.8276737645738,-17.4990466609088,-10.8735925678557,-18.6206891458132,-103.787425390221,-136.354323657166,-130.834223955266,34.2385127055513,66.3709480672987,42.1119085907776,-29.2727336034523,-13.1363495165833,-29.6899886152942,16.5615966718624,-7.25985052195665,31.3609655045366,-4.86018158499155,14.7621804114833,-33.0020931319086,46.8505632418492,35.6930740693642,25.1369969967,40.077724487368,17.7528358572572,10.465322096773,-64.3391042728435,-16.0074745186412,-5.85946536427218,14.1222924793547,9.07739398600643,-1.7444972568228,20.065201193217,36.9472957514417,31.8694051983948,20.1029726719535,34.7846101671248,46.3575776140851,12.8477787251086,-7.70689494549333,8.08897109251666,47.905999779945,28.298784190536,21.9974950632586,34.8360696112504,41.1561549102798,38.3664513283229,41.5193003152817,40.3006067047827,35.8915591828136,-33.911329201921,-35.6020314598973,-4.7652352461464,42.2884870782291,36.2861713410739,37.391141917672,18.5116240732086,18.0886550791211,28.1312507362927,-1.42708642499929,3.48098191367717,-24.6490240947805,57.7027664947173,38.6724476782565,60.6750938105788,97.9367260660456,76.2898548304693,40.7539817881807,-13.9079931472834,21.8526889362738,30.2611134665731,119.633710070029,-25.4439875190074,35.6860867018186,19.7515787516932,-19.6656875388653,37.5643072169896,72.1720777434202,108.106270391843,-3.73857109045093
,3,18.4228362722261,181.211546406359,190.897582576696,15.2511540174764,3.77706927727922,11.1128917665665,13.3508466249459,-0.43944660847319,21.2916042182178,-10.2711017430975,8.49287840356374,-50.019891469452,31.6117342073812,34.1975797280447,39.8427537436901,-9.62607751058204,-28.2831311691843,-29.9094266968095,-31.3432045780992,-0.754187999675196,-4.77492668834384,-44.1025328415726,-107.360245505259,-35.1216799750382,24.8892812108807,51.5419361577733,38.4943696934834,-21.2650497595378,-30.1970771206443,-14.377282055776,7.86056569337507,-5.10210453757645,15.2757156090674,-0.73283573592289,-2.40144150703873,-13.4912293424677,31.9976943063548,29.3449272273256,11.3728979046291,19.5654012474197,21.8540904018737,-27.282547185534,-33.6185074876721,-18.6350168966383,-23.8135319588364,-1.53674345192121,9.50918644025478,4.89719887272258,26.3020044933874,28.0113296341524,24.0467766077982,6.30379633103257,10.2375969061995,29.9674362170445,-6.10201493997192,-10.9333434374876,7.86927500236197,17.8843977235638,18.4058823501036,25.281582074771,30.6011461421713,31.7084092890918,24.7546437365818,16.3226940432469,-18.7922904401403,12.6494317562137,-13.4023640149935,-14.3033636286018,-5.87024778572959,19.5127080088441,20.8581720627462,25.3093321487104,9.94521881039964,15.3198801277858,21.683776399831,12.6695932404145,2.33422496184903,-24.011193560058,27.4148332632767,31.0830992916653,36.8192146418523,61.7631682014508,36.3586751269722,6.84184555705724,-0.735243088327479,10.5716704690203,18.5116528045028,76.401771193121,-13.612028347663,-15.6220443226266,1.75119097293464,-18.5039218415041,31.2346364862042,39.0317846096877,58.9105855305261,32.9244730744413
,4,21.4522758984713,231.434008922507,249.138345156206,17.8433563309936,12.3797648868958,7.86349522392084,12.4007793124174,3.85516422933324,17.7536302688059,26.7767124749516,0.433374835691211,2.92636833381948,20.5487519588914,23.1522790612999,20.8036521887661,15.0390252465713,-6.03053463155993,-4.94619174315085,5.87620694060934,5.55227880660095,-3.95313294182961,-20.8546739871763,-36.6965019397157,4.30197748657883,24.3943437602957,37.2213870718933,21.6257977232062,-2.70700866940842,-10.8941240561107,-8.45936873885967,4.8719561559501,11.6387615945905,16.1403907468521,-4.71082426057455,0.897063847099162,9.55644283755919,25.3622800792518,27.422798125237,10.194511763827,16.3380289967754,20.112218317824,-29.1503124182527,0.302082221898672,-12.7829530879717,-12.1140611978026,15.9525367109272,9.51381637523264,12.1718189537678,22.2013585620416,22.1905041738255,21.6792763350277,6.2739130264099,2.17083438963255,17.2040979824269,-9.50852840216248,3.48188137032412,12.1576024634287,19.3390170121902,19.0413571331565,22.8486588686264,16.3476237999976,24.3302439541785,21.3642351926046,9.21489311608275,18.1875513684172,3.35723269560185,-9.70836043094278,-1.48645453880818,-2.20892826838099,21.6099247827779,19.2414446439407,20.2944609694123,11.510231532643,7.80086140663843,11.3764733812641,21.8013769667359,3.70249017490642,8.65060250786883,22.4371693588837,22.3849508569683,22.5944836882172,64.3999474548236,38.5894514994434,28.572650648448,3.63668446079646,9.48925556360609,12.8215541866184,35.0274240744748,-6.77554090119884,-13.428370798898,6.53002688886045,11.6185288795768,14.0590876503702,31.8112112144681,19.8943951718811,26.692498538423
,5,9.94873987519441,282.990684029785,317.084284638616,13.2663735182578,20.1614969946313,16.610604171623,19.8604844875754,12.954337803817,12.6874051867544,17.5292944323792,24.0681202273499,17.9415440443227,18.5143401671994,4.79209830184845,1.98123501627197,3.87928144555553,-0.288421839943112,3.16706446034186,8.99024382808057,15.9511418783986,7.79621969717664,16.691863860653,75.1907928013115,17.5112350915424,19.7347858151188,15.8767791401942,10.6975749301819,8.2398929388437,-4.36663541352664,3.92037868421903,19.0085300221799,11.8534976657756,12.1120679100004,3.37600875708904,7.08677055004318,14.3986056697076,27.1768266937806,17.4630831132317,-0.588201915630634,16.5136600723436,19.122858513816,-14.4829021660389,18.940362961137,-2.76933784205357,16.0241470355759,25.0073427900697,18.3134427426303,11.1781846080012,22.0858992857866,19.3868550880006,20.0025125128277,13.6216864212411,4.58919789491119,9.80960482756291,4.20063234297777,5.68497713418947,6.82436029995733,13.7955432140798,13.6518113529273,12.4137486020727,14.7838599543566,26.2476103160361,17.1099835565255,1.24357326154859,23.3889840430747,21.6130644840305,16.5822202628879,14.9280419034349,18.1539575227143,14.2644710374925,12.665750998156,19.3783912021736,9.72362401082682,7.04353795889529,8.72529711130392,17.7584370135228,3.03544968737333,8.55704201980006,9.97841559861172,17.6072926132929,11.9908279111423,33.4724543786251,10.6767625117627,12.7063725915978,4.10727759068868,4.13337008234248,9.90363845661977,25.9193209527311,-22.4810054199406,-11.206618967859,1.81823430582517,13.9888499474437,17.5724134122938,28.1497738341623,25.3926078425375,22.3314495272916
,6,12.8158274748885,359.403766990897,439.221141565724,6.07224895358559,10.3275295067524,7.60954109976956,12.9914929818924,14.0382679476443,15.4479034121614,27.110062550606,3.44228681134882,24.3236761056469,11.4495011012204,-7.96035342057621,-9.62587916775374,10.747083860424,5.24438604576244,18.332856268973,8.53446745138899,9.82641461426101,22.9313474440005,41.2935599013399,72.1540281189154,43.3914641254232,16.9787265568912,8.38592566498937,-0.86991670347561,12.9702268004212,0.230493123108317,17.0943991808708,10.3563712180321,14.3402160731093,9.04214446347669,17.9250790425895,14.3655357518101,14.2512390704724,15.2390520667341,10.1480133806172,30.9454383316333,15.5143569796428,9.23806145961589,47.0398882449781,23.9713891069568,23.9392156765589,17.2819737349164,3.43456508451163,13.5981195447785,19.5570615555607,5.95077639204919,11.0209225635926,9.66519572035395,11.280967941876,5.61889768329456,15.1177769072128,12.6766420865297,7.56194000997493,-0.449398100743565,15.7614793153043,13.4178619190316,15.3433728222253,9.86410554628128,12.9638643703865,14.2131757006082,10.3983434014135,11.0367545806512,22.3814990865176,18.5068746460292,23.3233839675995,25.5713051776511,7.02200963144878,16.7248060320535,18.8411807791954,8.52397201108397,6.13202428876684,5.99600209546043,10.7489524356315,9.1279146688812,11.113874255574,9.66507136827113,11.8694503087281,9.07225767945329,23.9319449998347,10.2673131262673,21.770952055891,6.80066596174129,5.94745045491163,9.55780642481386,16.2369906954937,-6.70423641665548,-8.58875847499075,10.5098150864997,26.2429081978571,-0.500660963012706,18.1151935487342,5.06653629238281,10.2065508315991
,7,7.68583863579988,480.312694600732,622.425837806009,4.09055652535608,13.5939045669502,9.48716054092074,1.63958049286884,13.5117278583921,14.577697422872,0.0703504999455618,13.1780402547847,16.1440859979848,7.64081376497688,-11.9966369178055,-13.6282879748996,8.9583760341684,11.6947045697216,20.4520545433006,17.4661184747092,20.5880655380915,20.3048974134126,53.1052601923293,80.9312320158315,42.0594480346044,6.81910576964583,-5.78845251943494,-8.54053076293621,16.0598329109716,13.1334055626603,13.5483060022243,0.0709401754993451,14.9954741394104,6.58934952574236,11.3682520562725,17.2674411871321,9.5014744787677,2.59038666508877,-1.99991395312827,11.1240936353079,5.11663919335842,12.8149425078072,34.6711523921595,3.02200091437953,31.7741262876589,30.0718138343291,14.5362104914675,17.5178887090751,14.5980410257052,8.24569468116624,8.59422507140789,6.02667414807001,9.98213257468069,17.5143317502234,0.405049664097533,19.4886214189573,13.2035986267838,16.0375429419455,11.0570853459467,5.64179067438999,14.5583842268161,10.0291247127207,14.0102870323653,11.2337216592359,1.7563651976543,24.0593707258649,4.33059858683373,39.891512400216,32.2417689063404,22.2570448009501,5.62719117289089,7.20949215001201,0.806241422501444,9.30245222718258,2.91521784618726,5.42774509724313,9.68019478181668,13.7418217255617,10.4663202022784,3.62301669896533,16.3681435251065,-7.9085448404303,3.15501602987206,-5.70655713885935,7.23193800296758,7.62592866515115,2.21301102303551,3.61737723409715,-12.3384404143362,3.60190908433287,13.952716360971,15.2342046910853,14.837428499879,-1.17880962722302,-4.400398562595,-4.60540723063787,-7.87320026246925
,8,-0.98648058354047,660.096001092153,900.860792605677,8.12332359193715,15.8784042223042,13.1146702084206,2.11430613963694,15.4056426669813,-4.18554423833393,22.3700249115063,7.05479051450129,16.6840099335332,9.72145819455,-12.6937414846934,10.5094425107563,23.956112171365,8.74282788618075,21.9562344786755,10.9807568823944,4.68571215609336,16.1997233084658,54.3799095524919,70.7634772933816,60.5292883823131,-2.76926075497158,-12.2149717383099,-24.9213226184775,18.6627483496304,16.4406364920369,16.1280504671886,1.62150477356499,9.91132655568435,2.5060804016166,11.2757813278886,13.7060284265408,12.2624265014547,-1.28589045808258,-1.48864201387278,12.3720276613358,0.125061270812694,-1.26499843629608,27.7649073436105,18.9635865535656,20.7700302014018,23.3930247183525,-0.142290780930125,-1.37001976276952,4.89049266405345,-1.9173882771529,-0.360922788994685,-1.38681913421442,3.03825925195997,4.82969225266606,7.71950816303251,7.97921787440828,15.4807041233835,7.38239534690365,3.58678896245237,-3.19900876799238,4.63787263410359,5.66405482942355,6.11503243931293,1.49742993002565,8.09085592681731,14.3439998848025,4.67818298956809,22.141960065288,24.0607913021067,17.0901187876843,2.01055339441973,15.7154185132749,2.12063773248883,1.03496335367709,0.71610972864346,2.98335649717501,5.85253716912121,9.81839656376542,16.4530221008881,-8.66423646329531,5.64577482835375,-11.0492293039779,-5.96427229192523,2.68091860214918,-0.690475728741148,1.92041724525461,1.41605879060171,1.72199054012162,-10.6358248903507,-14.0086431638229,-21.4347583898743,18.094131511165,19.9691780317025,-3.6940646477924,-12.3391445787638,-8.74157519960318,3.71627739478754
,9,-0.393940107452181,921.818895752301,1373.33785215763,3.37118866197943,14.9178030894664,11.8827649039231,6.80055835440908,5.83879533905201,3.50830951579519,9.37709810169144,6.21767628933412,17.0751908171351,-1.04857111137517,-1.8271999942499,51.9087345260841,15.9815257684386,13.3859752902954,25.6217849809454,35.706438612995,18.9177405349201,14.7148872333073,50.8172521490724,73.5057017690233,46.0000121367921,-4.87121806850701,-22.6347476908395,-24.0553775233411,21.9141371211535,17.801871987107,16.7323690330159,4.10670011282036,11.0823122061047,0.0081427088161945,22.3202570399653,11.2477107818813,15.9404881577739,-7.5404097554383,-8.95293118058635,-1.09825698557415,5.04488185852915,14.6625507469289,38.4137647644711,17.8435787887702,31.2075991756919,26.3074806467084,13.377018094483,-7.07435791272837,-6.57624751528419,-2.79852977944756,-3.66318832163051,-5.63655876717075,0.9121685344453,7.00721633626381,3.21917738245429,10.8091100070578,8.72144811703402,1.18683984881864,-4.3634822358672,-1.76696326243018,-4.57123283207511,-0.0593705047522235,3.36082755583357,-1.12305412852311,-5.60285483461485,20.7201459122116,-3.51370964969647,24.2147542659986,31.9120543070821,24.8540534649692,1.02746372440561,9.20897228070135,-5.87099075720289,-3.63217669493224,1.34744969673284,-1.0482983448037,3.50176588550676,2.9905313734871,6.45400432297538,-19.8456897870101,2.54919060779503,-18.9279239503503,-26.1895848772983,-19.0312901062371,-12.1876956816559,-0.350856880536412,4.21922279583123,-2.39783176442506,-40.685290741847,-0.18001212015588,-20.6726860849885,24.5157162402847,24.4184321569246,0.641651959102092,-28.1511060042867,-22.2742318196997,-28.7184670210027
,10,-14.2009352768446,1266.07875394295,1993.79052358517,-0.967268681552014,-6.67392966244097,-5.88418661199285,-12.6691282372694,2.19538936472964,-11.1020919892417,-20.648516485764,-25.4342534175012,14.8028508515345,-5.63710860566334,8.95821536277708,115.180273987325,10.7517844512022,19.5614517279137,3.87618080421635,18.3842076766778,-6.78719470884607,7.18861804637527,47.3138483352632,48.243655611288,26.0343479253752,-8.08162275298764,-28.7779408934666,-24.6124967158567,12.667786886861,10.1982045681407,12.3242843342059,3.12286817219047,-3.66460270710377,-0.529990905920386,6.74538834220493,4.44225107491638,2.74789331500415,-14.1637856157913,-16.9130018247406,-5.96387133303961,-1.27578009592253,6.21071207737714,11.855688610678,14.03556917692,17.2135735465545,26.9957980828131,-17.0376064065058,7.72511155392749,3.51410256807685,-15.5742013532144,-10.0055276777393,1.65861346285237,-4.41691435697794,-3.93198097597451,-6.40391660702971,12.751995381097,14.7372660897236,7.45941899145873,-12.1861836106009,-3.01671890508715,-19.5488278793719,2.67474612702154,-6.81600462305232,-4.39808367472961,-9.49195238580251,-6.84688843718504,5.16767754402099,18.5479577845781,24.9719470781856,20.489303396851,-7.99273971187176,-5.0111265038795,-12.6704106414782,-4.62367443188487,-1.8044247563821,-1.91664842445971,-3.70149322060934,-4.84603842502474,11.4041656143618,-24.4385522190487,-4.84294099843919,-28.0440222184643,-47.8884242244221,-25.8708317932942,-18.0383934832862,0.368128189039453,1.15805610406187,-7.91848463861515,-18.9815899136247,-39.5479968114742,-32.5528473501872,-6.73278765183204,-7.62325528162364,-7.00359434996608,-44.2090257536947,-40.0538278592176,-27.4251740453929
,11,0.503876497190504,1798.55976232433,3016.6071534811,-7.66966143127138,-9.60333599098431,-8.15750174735877,-14.3894457036349,-5.99673166111279,-13.4566679996115,-32.1925329258083,-6.71729151002546,-2.17362365582994,-9.66019210974719,49.3361236660185,250.943143792993,-11.6903102359684,12.8445152071363,7.94059746868334,3.3560295700081,-6.67736067454825,-4.67049658066935,20.5625508676912,38.8739656228463,10.1612620638134,-21.9431996006542,-40.3239122504838,-14.2351846201991,3.93439457812565,16.8645147259895,6.57363554057429,-3.47401999737303,-0.740494631878391,-14.092149509258,1.662067647816,-1.25539346435289,7.99352816861665,-22.8832034075722,-21.5742292408368,-21.1722474878752,-4.16482102157079,-10.9237594686338,16.264496333486,6.75099859628062,2.95574934603792,1.78619231012453,0.755610708994936,-15.6145114819319,-6.0933444959046,-17.504257556111,-17.0116865888349,-16.6046012091474,-2.18920740900285,-4.3319248994103,-2.68315902992344,8.70527548583595,5.5304378522651,-3.14982079809124,-7.85180124224189,-11.3895358356212,-14.2236713064622,-11.4694480336202,-1.03378282762515,-11.0878263142486,-4.83572990483663,-13.4775161004454,-15.619864619317,7.39038036771126,3.22086552212386,6.17832840249503,-12.2805218282492,-7.22492711204541,-3.16874929097776,-5.45921382215784,-1.93782225269024,-3.54293212091306,-3.488292256563,-7.97496892835079,-8.09789860423916,-31.7821492810708,-12.6391493615065,-36.3546109887993,-61.0517530582783,-32.5071479061371,-35.4390523634793,-0.835801315465687,-5.12265511972055,-6.03024182256922,-58.209372830881,-14.789943459702,-27.6354213799568,1.90894964627296,-14.9342181170123,-14.6242300259073,-40.8576557746419,-32.4828961038529,-30.7347920623852
,12,-0.653992387417929,2690.5457172587,4709.26535187622,-9.35382297091928,-3.72240281483664,-1.46098679856186,-2.42166158761393,-6.78665823327083,-16.1121203104767,-27.802447083588,-14.538731193772,-0.209097512608423,-14.3146391583568,121.726954801763,517.864039084101,-9.40477121704498,9.97922768325589,8.22589017513201,13.0205307452597,-19.8701129558995,-3.73739690696493,37.0554714982973,21.6806005204526,13.2603460910032,-19.0928003725312,-28.9199503972777,16.6840263261074,9.59222817389673,25.9318503129252,8.63430522417093,-4.00249377586351,-5.36729738946178,-12.0857000015976,4.12349767984961,5.670597498196,3.88980767691555,-29.9469567894612,-22.8834000547658,-27.4549035672808,-11.9306962433711,-9.46221483847876,7.82641756296835,10.9629010950393,5.43394651812741,2.81713251836845,-4.8199324757079,-0.0091186266799923,2.02913767288919,-17.6155985716641,-17.7698048784923,-16.7139549054709,-3.24920309165645,-0.807796427741778,-16.0504509712009,13.338850929551,-3.79463908445723,-8.47120231805638,-19.8859052899361,-16.3124117596917,-11.0377813329615,-7.08094935530426,-4.85261665087819,-9.42297782519472,-6.6446177684229,3.36158051580969,-8.68142084056308,5.79677295421243,5.76497874592314,6.91213278442046,-6.99038907427439,-7.31211528603853,-15.339678407252,-7.55843353856289,-4.12681925413744,-5.97421501771169,-13.01846118707,-3.14569430661868,-10.8322084142201,-33.3130743977863,-10.2507445534047,52.2193221754251,-56.8848424677817,-47.606980169021,-17.8665348831164,-2.01056336886268,-0.552059015669329,2.3783591989577,-28.7401534331202,-9.33702422424903,5.99946500744045,0.515937671312713,-12.4859080732858,-21.2265517622418,-53.1163591284676,-53.7140510770387,-52.4460011686533
,13,19.5197878238159,3935.34962385249,6979.38372672804,-20.2048225910239,-8.14219579080509,-7.51515932367056,-15.8779244559892,-9.17244269754792,-12.438648189127,-35.1072073550458,-18.4472881071615,-33.7218863242942,-13.0925731606349,238.132181681966,935.321307778854,-5.34309193158151,9.49112647836046,4.97344956782035,-5.39263190359634,-3.1865319617682,-14.8087765807541,15.0232356627694,-2.53751400149667,10.0460106385854,-12.2296162790726,-21.6688102156577,70.0074438984093,0.389032486575161,21.1580119002283,5.76817879778173,-0.233211433990618,-10.1110426272417,-19.1534408360958,-1.12219006143187,6.00660594594319,-9.36804518306599,-31.586268837701,-27.0346676863692,-20.5550192977453,-16.8152287942639,-9.77110846724008,3.38832819883737,5.14269287853313,9.61708978018214,8.65838978071406,-2.47691005950583,0.82383234063127,-15.4321129995678,-19.274875090885,-18.0038808421077,-22.9012590069024,-8.99997411903041,-2.2221086385598,-18.8347043090753,1.40807466265323,1.11382192627752,-5.26058934547655,-19.2871563671397,-7.27471280333157,-17.2845127581677,-10.8764826331208,-7.17288836239732,-11.2611224334069,-18.3907017260008,-16.2144036614682,-19.2953898080123,9.9937310544301,-0.0347059484065539,-4.46832017628913,-6.91101701223215,-6.87940822232122,-16.4642495269236,-6.87132136363925,-3.43226259555831,-7.66061413637726,-21.2309945135312,-5.51008456967429,-0.0387939346128405,37.707504496625,-25.6579746271436,37.8220912171682,-53.8448738684765,-40.2873758439164,-33.6715177978786,2.39603892497325,-6.75686460100223,-5.09755405616215,-52.1417760691966,-26.7611210919604,-32.6629004665301,-15.3614674050841,-13.9414844483399,-29.1653984451059,-51.4220580660203,-56.6949310020136,-48.9295881606777
,14,38.262750332281,5527.73832201622,9339.22478542543,-18.481363197724,-13.8219245790206,-4.57109858080821,-15.3628726649877,-9.00853404783265,-21.5621162783773,-18.3823266580657,-12.1410081932409,-16.7287917670983,-18.5149440055948,383.611929944615,1532.98201276358,-5.14545571693088,14.2083362399935,2.23135221683151,1.53179613088105,2.37656558633353,-7.77258547835299,19.1162266892024,-8.37644233384526,-16.3202698371097,-14.5595100666251,6.91598889941451,154.609369663876,-0.507742407427941,12.5829547757876,3.39892057120323,-4.22694643065643,-2.64328226029465,-7.4260862310457,-7.45772623139874,-3.21666903612913,-0.873088013174311,-29.5759170709453,-24.7810243874528,-16.0418405736564,-19.3351928355896,-13.6150020509085,-9.71634149069359,4.28002566980831,-0.686997045229873,4.54116402742511,11.7517102307684,1.07269794373678,2.82433306728308,-29.1994619653615,-23.9118983146464,-25.246825365537,-9.17614789944309,-8.75368766971042,-20.3043564655263,-8.55177788575384,-1.98670930271874,3.02524127666038,-25.3262802662621,-20.7893887910377,-19.1167044913163,-12.4153095656256,-15.7360673797002,-16.1412226002931,-8.33535868615218,-12.2842487098897,-21.1352672988141,-1.3456898932327,0.746318143752433,-12.6903827315,-13.4915547799474,-11.7906625618016,-12.9880591397359,-1.12640067660595,-2.64533995639795,-4.19870763216204,-31.6891260578959,-3.09727497826316,-10.329248888067,29.4150789836121,-15.0479903493924,5.40896094141772,-96.1269410320456,-31.4706956502705,-35.0184616316947,0.584806691633275,1.42555540334706,-5.33280393176847,-57.7495131564901,-29.4325712374484,-34.3154995514924,-7.55510792047244,-26.1726548198421,-28.3110905833128,-37.4042426880151,-53.4813984950833,-38.5313227883544
,15,50.4179414679093,7446.068368094,11572.0090377658,-21.4119560723175,-17.004252257504,-20.6866900214609,-29.193294144141,-18.4713916222545,-31.4012298507969,-4.59921187208965,-4.4394908717677,-21.8684090487968,-22.7250674065408,554.902074026039,2362.67922171607,-9.39921024282739,7.66233035150435,-16.4185114067641,-13.5158347174802,-8.6531055585674,-9.24237146616542,-15.1869419884097,-36.1323177643626,-42.9158085656654,-23.3793605487508,30.8450121526685,265.875464021792,-4.70363044098849,8.65193626814835,-9.99467201614061,-18.5919481006313,-19.5218694133409,-22.6672685087133,3.02063168313452,-17.688172202872,-7.68616163039133,-31.5723257263571,-17.269176620086,-4.7793323138585,-22.4258771284831,-23.0462678244885,-20.5848039416815,-2.52618016245469,-1.32973765881798,-14.0746041735074,31.8234484931309,-3.16156373536614,46.3174576476831,-27.2206267415368,-25.9180090154587,-23.2502684845194,-22.763659970703,-24.2360653189144,-29.1045308897546,-8.33004325554975,-5.78918283298663,-0.685334172212606,-24.6158392133366,-27.1333277563208,-22.572096744354,-18.0347729488412,-16.7264541463946,-25.2740260771561,-22.705615594241,-35.3331451321683,-26.3988017760294,1.80883191273824,-11.6004320215088,-8.93160859148884,-30.4382404600228,-18.239150648702,-24.2773812796677,-1.15616256928479,-11.0808009048051,-8.83041353665249,-36.0194223821836,-40.2761513250334,-19.8199155783368,23.802566979798,-25.1425113486721,-60.7035492099503,-99.7502034834597,-36.4941414433324,-35.9177548756052,-4.55488462001631,-8.50236070999836,-8.13448381626858,-52.4888674391568,-46.5022503729087,-37.3666604853315,-32.6953960081592,-26.1910481822051,-22.4075986994121,-26.1843320677999,-34.0552519616631,-27.3320466501209
,16,85.6457881067781,9444.53503830008,13486.3649709511,-21.6345016142332,-20.9333175954871,-24.1838713260895,-34.6496658922124,-17.2737387629213,-15.4048617968456,13.5922004674776,-7.80753437078783,0.215016823180122,-13.1762669167019,862.510225879506,3776.76074353737,-13.5338465238947,0.578253706322357,-8.60482044273158,-11.863099047534,-14.9322440202977,11.9127245205182,-1.73498859748906,-49.8482632728192,-39.7166739597433,-20.237911358191,95.180235509406,484.80047654157,-0.461795059772157,2.72779291202369,-6.07387066578485,-23.206951176051,-15.1856201092296,-14.4837094140466,16.6847230997673,-2.48193123915189,2.0903679693256,-16.2122541148037,1.058602067028,17.0243970245656,-30.8375922754867,-40.832559003823,-18.8102758431642,-8.82676175195593,1.20503706561976,-10.5308784611061,70.5371912377414,47.9387969944619,93.6478294298286,-25.1073509002717,-27.0373458015029,-25.81279125728,-17.2022699901408,-13.5382355542461,-24.1886268256521,-5.2381680940216,3.01622676875195,10.7656689487449,-16.7437122208994,-26.3564844671473,-30.2359447273957,-24.0923656273972,-21.3839999564343,-22.5985319556703,-5.79516873069952,-37.6699616759688,-18.4861900139695,-9.30395653571577,-3.78524552099407,-3.79895154759288,-19.6566065010611,-17.95472111865,-12.5421872746829,-6.08916281978418,-10.4092703027354,-10.6448362469864,-38.9090875664024,-18.7072440417396,-31.5763311598294,1.68634079908315,-31.8875398910532,5.46942307198697,-106.392170154411,-13.896261614791,-5.8183760262873,-1.60564409088056,-1.43415805798304,-14.1067426001146,-54.3789729016753,-4.17479544777234,-7.30825026136881,-34.2671958899045,-34.0255412591032,-6.67042209831197,30.537613606115,-17.182193765595,33.2342532079929
,17,144.100811314871,11371.4146151216,15007.1461177599,-26.1654068189891,-15.9987680371187,-19.6727657803222,-33.7534005329908,-8.73733412600905,26.1016929275775,78.1812423975261,66.394976554282,-14.3570872914934,-21.2071538258369,1314.09075515018,5714.89430818579,15.5350559146991,-7.34049209553996,-18.5430383302974,-3.7971766484261,18.5788643748183,34.8556717344527,0.545310120440263,-71.5697109813191,-56.0982925561511,-17.1470574198838,195.006022931248,824.221129682508,5.63372113194782,2.32390533567923,-6.17632755781142,-14.628593537459,-15.1692695610982,-0.822862884931965,50.2569794329074,6.77742945548653,28.9399636101516,6.17685909259217,28.2588370748717,63.1858475912732,-22.9273758299714,-24.5777849936812,-27.7964710042306,3.24619059233555,0.33270249884481,2.90843721313104,160.958710902338,109.749707300538,199.684512458976,-21.6747760234166,-20.2053034451137,-18.9212423347735,-4.52771996414231,-5.57187090745538,-7.92701132440652,0.648397662165735,14.2624210593622,26.7178133992911,-2.30001892168002,-8.72560261934268,-21.9716931842731,-21.2581778949079,-23.071093698497,-21.9950682912167,18.6884699881775,-19.4427012645319,0.995272514157477,9.82708230598473,15.9412854666934,17.1513671012199,-23.6296023063023,-29.9748842463841,-25.7674471397695,-6.7350265724499,-9.10713675551324,-7.10890126693266,-39.6718857297474,-37.7677416338811,-39.6436816382848,1.63660208019519,-31.7031821778501,-2.37176090455614,-96.3754859879646,38.1429714962251,34.4980390150849,-2.03502659218429,-6.79907600578099,-10.8239929578231,-78.5236709095443,-2.93812419980895,-0.34850221270608,-25.8735926314475,-14.632092835971,21.8693297556201,144.27690139359,45.2327522482683,124.571400676139
,18,217.546562614097,12981.310150714,16078.2268065306,-24.6904256732832,-21.7469103221611,-32.0603216756317,-17.4439298637053,-5.95069016921116,86.4644310698086,203.159986675671,152.780495155799,42.4050721367494,-16.7749285732189,1949.42822957366,8041.33143267365,37.7230214442807,-21.7019456149137,3.15835995621273,-6.46506503112687,40.5646627165788,101.032396759043,8.64157146290199,-59.7168799077717,-42.7645087029214,-3.86810214035995,321.07468349646,1345.06176974812,25.5718596427459,-15.4038549154393,-5.84782993850331,-16.1940787571557,-2.72909866294867,16.4009736762855,125.781380244372,32.3725056076401,76.1947790683253,39.0053512410386,79.3439959347252,149.117003282338,-21.0162437548443,-36.7116464745759,-28.9734478709297,5.97269152578338,7.31346383735581,24.6591597604966,320.046862491274,222.256672854899,406.356812429531,-16.8637348896627,-15.07429726595,-14.6316691376642,13.6714602225793,2.37353472646191,-3.63714477438771,1.15982348887155,46.4386010783855,65.6310002754071,22.7299478248242,-1.76602466479835,-5.50759352163368,-22.3351596136563,-32.6389339065154,-27.4318321259079,46.5709750639053,-2.59271474126217,14.304096923408,53.3405021599356,58.4030519847001,57.1342006383511,-32.0450914720313,-31.4228919579655,-25.2558912380964,-10.5093448253201,-11.2300444601733,-12.1815217814228,-32.4472599939782,-29.2159431821638,-37.090623903081,-12.0595921405193,-38.165891945745,-9.15398055899277,-90.8689731533577,115.3263034384,82.910894402843,-7.52079755553132,-7.44895758691655,-11.3265600085333,-54.1000722769477,15.1918667041682,-19.1370809432701,-20.8347090598618,-17.3718828309047,81.4218608458541,332.191995639356,136.221753121397,301.545766229305
,19,307.005085897671,14205.6164579603,16812.7907881989,-28.4776191141209,-25.8792096384814,-27.8731894337843,3.00207529263207,13.1125070293283,190.811580684696,430.126407284517,293.706268097503,154.62359490334,-9.79672873553682,2819.6433715259,10285.7685021046,105.747938311184,-13.4314953431367,26.5681996092208,31.7740169398512,109.792391984833,205.574488367924,63.439367725794,-44.274504245248,-46.5359615314865,13.9646755856638,500.600272134231,2107.8457700801,56.1910195630753,-16.185938315798,-12.2001655508438,-3.77075765939662,14.031798039664,64.0402933431187,223.422768766901,76.9739743757291,162.293146873006,91.1415264469651,155.193827321729,269.806446728839,-1.89663249730893,-30.4924871560943,-29.3431434283893,33.7654798694348,22.677871175667,47.1801312223051,563.402911773743,375.409661383614,744.42875971001,4.0434931556656,0.43446798837158,-0.342557406845117,54.5303917405981,6.93119176530308,21.2531596613853,20.8094671686904,103.479176398318,155.792291894275,80.6769965575859,26.8011940817287,35.5397376072797,-27.1410548350013,-33.6711919012387,-24.6443449658154,123.111400939411,16.9190754566225,74.7978765993666,126.185072754854,138.782925641503,128.356505220394,-23.0406299142696,-20.5980387436894,-26.2185560205462,-10.1416619484335,-8.18836514337181,-7.46982449257121,-16.6081476483032,-13.1361688457728,-25.2111521031293,-22.0411741715998,-40.2982503397798,-14.0328983776526,-54.5104459215254,267.631640363312,194.384390599855,-4.86569691125806,-7.86547579081798,-8.47259007788762,-67.5619841024745,-15.3666130972451,10.1332165345048,-33.0075850289213,32.6516756137062,199.853359927869,645.398001295502,282.144427928941,575.090013192068
,20,454.648549099159,15118.0243101117,17330.870416892,-22.7613347141778,-21.6214811027021,-29.8043176334531,29.0213182612042,57.2532212603683,401.363314029864,823.180402661505,547.196335970835,265.860102852264,0.751844993274972,4070.88789114048,12291.6511810068,206.824150910816,-19.4530765838954,61.1188598341741,80.7804649069658,227.274123866455,407.446439492629,132.016375146464,19.4386783266855,1.50688489080494,32.6556957442399,765.434759720833,3277.39457069131,123.552788502356,-17.1826931187979,-7.8657235628807,14.2147063590364,56.5766520767893,153.734874393971,436.005832021142,168.951387851794,321.317764702791,175.012468509877,280.339038490403,470.901584142892,36.6180732647781,-23.6590880613385,-19.2443494132604,78.2802619963331,82.9796499979548,144.71168554046,1003.10960199273,686.000941663353,1278.90417135567,29.7223778862544,32.0545123498769,29.4580876505197,134.595432687075,47.5070615144132,89.6705642319303,66.5619044039759,200.382389097596,307.886591746836,193.709943462457,71.1085951958858,90.5430092392589,-21.0028138390517,-29.9678172671065,-22.464081582988,243.26176413547,85.4225722700139,178.920612727805,252.18450773828,292.540453273634,270.968030007771,-17.0109294887043,-21.7574466695523,-23.3670411443309,-13.2220330056052,-6.32853317356239,-12.9674637462058,34.4999391322581,27.2935807552713,21.0044616118957,-23.5889910896722,-33.2283851172751,-17.4595018750824,-8.88737851111546,548.034812028649,401.776476258841,-2.39593777469145,-8.95014300920866,-7.18824267701439,-49.873079114348,22.2761928493601,-15.8096483603695,-4.00936808496408,74.0941640495184,406.817951899948,1210.40705539463,562.04378120882,1082.39052871451
,21,645.895981610449,15812.9754207266,17717.0692839179,-14.2177439053348,-30.1474291845698,-20.3175650096791,80.7436697591693,126.810429927092,757.983932861376,1466.71683014316,1036.08802142263,531.06112585845,9.1565768845503,5747.68392532274,13930.8507954625,396.825138175913,-25.8008910533918,160.302671696332,193.364303416432,422.346250695018,757.618827441813,296.78519921035,127.18789237859,86.8441934158182,63.5396106581302,1150.7616159692,4931.08446677275,241.658874688287,-14.6067449394059,3.25879245685064,63.0141178759941,153.237582501562,321.138705200351,784.1381116656,323.334779498956,602.695401484568,299.202972804501,452.201419220627,769.016475149569,84.1284565547403,-1.96491736507414,11.9004281690777,176.036452145368,208.237387383961,300.385241503451,1651.70611610116,1138.07198082204,2144.30397731364,87.1537144565191,89.8556291349814,86.4199236716704,282.872178182104,116.916635926558,213.471896747596,151.092578656428,381.558591549025,578.675725790643,384.671515921694,162.693713012839,211.903799157561,-21.8141526915879,-35.3679218401703,-9.57440105685419,482.496733631309,217.58854648241,369.483759708362,495.775592321845,587.811879325525,535.166795163643,-7.03390533341553,-21.6835742068824,-15.8823984347555,-5.35923973693571,-7.42626624207333,-14.0946720519159,125.585515920453,74.5590881016469,85.2855154693989,-15.8387191705069,-25.0149551146451,-8.88467121903705,96.1548412267184,1008.87278299959,753.87374545149,-4.90824314084512,-7.94769977457963,-13.9669927347641,-13.7072399067911,38.4482555274335,21.5645686852513,29.7544074229318,198.415779338275,747.955467724003,2088.79150168359,1023.36161118683,1896.65085787925
,22,980.489290392357,16325.6476187118,18003.128711042,9.3773134523999,-20.6366751403884,7.44868259705981,205.031115402403,286.784860542943,1482.75857869729,2656.74465945909,1901.72608448756,1033.11166192563,41.1304464847935,8045.0485483043,15137.9399530203,772.192352498478,-1.40098642398516,346.900929219401,413.779795994293,838.10347494278,1431.34153187938,628.542598926024,358.875888015824,311.31177918363,115.442254225706,1790.42678113357,7270.60318130306,476.642351793696,-4.98996242197245,41.2089160200585,164.442803279214,345.742084984221,663.631182852658,1458.89358510292,652.433608473089,1140.42790560272,506.706139776797,756.586769308836,1304.0136384989,214.146953521215,42.9358924581875,89.1297100962047,398.4131558114,442.592807807443,634.239840663595,2721.57227514159,1963.58001250182,3542.51623117366,176.249841971453,200.431064268537,191.063312449328,577.005397172829,275.993019298008,476.777213420281,331.505716840295,756.992514363243,1098.6026454101,769.143229189071,345.820283733479,444.825507597224,-7.72614186623468,-31.6664073746897,6.28132714416279,911.242349623988,512.822455536585,746.014652206246,947.621876161113,1146.34198163913,1061.45993077965,34.6774475739812,4.84088011077347,3.79016915625562,-3.76821040750838,-9.17636911243608,-14.357282166764,318.732153057255,224.524550755954,253.355577655333,-3.84801708848772,4.8391755473067,21.1643266091442,266.299629993013,1815.45732082576,1398.2168549899,-5.51093708218741,-8.58774291229838,-13.7967813738496,69.6192882487358,150.225376740644,64.7432640052939,87.8752089359859,422.510642957106,1397.36759724997,3543.27515483692,1842.92496161234,3300.18441761711
,23,1399.45016685722,16692.8093370303,18208.9611238235,36.9927399487142,-12.6217352888825,42.5039308919022,368.140408516464,506.215622488308,2556.50984818153,4076.81949986341,3071.65300953449,1792.95846373469,65.1316840431728,10253.9321539181,15966.2346080108,1315.7289758514,6.27110711473142,596.116636831759,752.378788462402,1452.72581075569,2438.28812693527,1118.05770808765,762.248101628889,616.403349793256,164.845722441714,2613.80350764884,9485.42196586857,841.853473277538,0.759338452566226,101.0636982394,345.100635558595,676.925324593866,1213.67111495851,2460.25892326325,1159.27578745885,1949.01764081491,777.493497967377,1164.80636081661,2044.39873594969,443.919672865434,117.56768687378,225.482980532199,779.569525087602,882.874165369505,1156.66873414434,4142.65396018872,3086.2378982109,5228.3770751561,322.946296528208,352.423288856625,341.144328134001,1064.39905570888,532.745279687941,887.169021429596,618.77550657008,1317.81924152726,1879.99054022952,1397.6101528588,640.502225180025,811.759104877861,13.4578273920606,-20.3121185074906,43.9776898174687,1649.19403156044,979.463467309264,1389.97436984054,1652.28787837706,1988.13743787035,1875.54174563037,93.4858578091316,39.9786181255095,39.8721570652306,-3.82677055648946,-7.48977961399396,-11.835193742193,652.415303125035,495.176970695607,511.135556592058,11.2273142281438,51.7305326689957,68.9802997174065,519.322131890378,2967.70980547513,2331.93814131949,-6.94008178161857,-5.3191559212728,-2.45629556377025,205.625042754506,254.324092773524,128.932705503106,228.243643377347,760.20399088522,2343.8188390634,5332.85050800946,2987.96395235243,5073.35405753636
,24,1926.47421494768,16930.5520567872,18351.970648236,76.752450110368,-0.776834290868464,82.7804814457113,605.031515403163,855.007090608528,4027.58929026941,5678.82458914519,4465.26604936322,2801.1568380189,98.96037886256,12326.8735138168,16518.7103478548,2058.24933933182,41.5916286595566,985.806843121065,1213.7434013939,2320.27818716698,3781.29671788525,1785.50566406717,1308.76921605566,1053.15467079408,225.94843267671,3660.74401404029,11497.972056036,1353.36816740214,29.3177320813338,183.751777083503,643.837157058565,1193.81206797304,2046.11963422929,3812.58801237303,1922.3879524558,3067.56540399384,1106.11437886848,1674.68250566319,3021.2662814136,773.528865720672,257.181595197741,452.739742701036,1341.64054514593,1516.92728475986,1938.16383845049,5688.09340915816,4467.69147806242,7080.8500176357,510.686045130132,554.473075367747,542.753349507693,1785.16767227245,972.128008619286,1545.47986955994,1074.47880303701,2139.15123805885,2987.64225944232,2300.45169321441,1083.91571621503,1384.14599489552,37.4028765362209,-6.81312390443873,86.9842059234843,2666.77774544779,1733.46586034772,2334.03284651107,2657.89783335088,3156.24432061564,2976.75100484953,198.881354910649,102.902689196423,90.8430707099315,-10.3409368077528,-8.77234012510144,-10.2771966378032,1147.93816385567,918.447459886025,982.235942394018,63.0575937087515,128.590807207756,143.284928974843,866.213889920347,4433.22837687857,3556.13025058318,-10.5607897753489,-4.79078590305198,-4.36859763132816,457.710753861871,456.527475642582,258.091201105639,404.278267393393,1271.58934162403,3614.25629545055,7209.5407298599,4485.28668520189,7026.79894890373
,25,2757.88226118824,17117.2998577406,18483.2138247839,252.124679696214,39.0430560426676,190.499819394819,1090.15826514255,1463.21758753285,6273.61256775535,7372.09067569376,6304.50935253678,4278.73130904249,168.3827080316,14121.2562527363,16906.4812013254,3298.65701073231,109.799414120856,1694.68714577903,2083.75978764463,3752.55326154846,5824.68085808625,2910.71722506424,2305.35190516614,1898.22715727929,325.430614658128,5259.71195523347,13149.3544812051,2261.66407492807,89.2761228221034,345.025861753257,1260.36107893829,2179.95539294714,3518.71005855306,5785.03344149309,3251.07504052645,4865.22132676791,1656.97620684705,2525.6052348092,4606.45674559114,1467.54600503894,530.455593220046,934.41045665246,2428.84680610066,2720.40590372122,3327.20380320852,7482.43666070432,6361.03979526306,8867.61794237782,855.246153609635,930.169303106096,889.076766494731,3081.78375566524,1805.0856145452,2742.73385131968,1910.31785225707,3524.66527442674,4776.45620701447,3885.71842224787,1898.14170648663,2412.50873341622,87.9650784964406,21.7473233741557,183.029851181827,4370.86767589437,3078.40964139633,3949.54944104004,4241.57881743903,4936.05709250442,4725.31707655056,394.456622739619,225.777946924309,219.959473149416,-9.55049342279108,-4.44830846656896,-9.92188974574219,2089.96872795403,1682.89646077907,1846.56290772251,151.438561235048,297.982440357371,318.792149712022,1428.36865843051,6321.74684033849,5306.82968356257,-4.47978429409704,-8.12358510240574,-9.15891326105339,829.333344323601,848.790824311804,500.014783125192,769.799496611566,2150.02303467754,5410.23344404352,8985.55052985754,6492.18921324621,8920.44123506766
,26,3910.2636196139,17269.0553617191,18567.0929211567,440.672337160049,95.1924343641531,399.214056644072,1850.43303388983,2473.9119895988,8732.4393093291,8822.49067232358,7882.54221433523,6020.59413982933,276.280783227021,15576.3362007357,17197.1878571283,4982.40843772239,262.302574226846,2762.49162242815,3441.22867320905,5736.92906079754,8056.17874468863,4445.56502021686,3776.57728454862,3112.78827088785,469.803232493355,7395.58838629135,14428.7850406948,3615.121604728,209.103280249282,644.020769711503,2317.04993131675,3767.35619617618,5630.66450276809,7845.73247504127,5200.97501421518,7021.67114457488,2428.89008708285,3740.15191987648,6763.509188958,2605.38969038929,1055.33479551727,1785.51210706449,4071.217603387,4513.01259693315,5282.23607437631,9109.08254820599,8256.12418737541,10438.992772539,1372.60492408354,1495.75776048232,1410.72907468739,5012.77598601162,3198.49849553146,4588.11816257494,3272.54483520556,5432.79343635473,6974.2538891333,6105.99551097692,3201.39349703827,3976.13558281472,173.668270733634,57.6188682328821,315.118575268332,6511.68367296332,5112.98274509416,6154.58746611163,6291.57776256371,7046.48587550376,6836.2628451619,771.895926481081,462.699331995828,427.052997293631,-6.36582881608319,-6.15756796517417,-2.9994571470761,3529.30233048733,2920.67177248417,3179.31080475873,337.118929312897,605.178515667108,654.28673972907,2227.31016237325,8139.83968027269,7164.3638176532,-5.03501699896515,-9.40424484276173,-7.04124926673649,1489.13069145678,1474.21634312483,937.812424776901,1360.45893255418,3467.01854824282,7410.07671316361,10502.8476364727,8509.45368908284,10548.1507113431
,27,5334.60604839207,17393.19940175,18633.4228046246,760.289813580673,214.175430114349,752.87397901211,2997.0318334388,3915.6492024248,10928.6228606271,9959.48002612229,9262.91235509477,7513.16213651112,434.544116267162,16654.8776011945,17398.1791620171,6823.656124036,549.130327699389,4174.94510933479,5131.38799870431,7846.27506096407,10107.1436908578,6052.85758211365,5470.12878688294,4622.46307759212,628.94727959402,9673.00838592433,15337.2324094674,5309.74748743434,422.216756400847,1122.83265370373,3930.18539354663,5884.77023312024,8005.4506765871,9632.72418301168,7572.52461923057,8913.65624061127,3480.17294615754,5310.91640251209,9278.60089699503,4223.61354091286,1912.20849469046,3108.37042127484,6116.93240346767,6615.61663068645,7415.65205519396,10464.8544314755,9986.018313816,11665.936291941,2120.23141812164,2296.98929453997,2148.33335545071,7321.3104753798,5231.89324124096,6928.92461982236,5145.5343030547,7434.46439638621,8913.78141058555,8544.04550578538,5019.85774511161,6061.50693553601,297.42301000078,114.654635184939,528.42658038971,8409.31830163253,7484.78514288558,8363.27330925178,8243.27036465721,8865.09450269858,8676.87670908135,1396.38741110192,859.11301707875,811.258096750564,-4.9962648658111,4.99922025563046,6.91503616075261,5349.3240937203,4508.26258595176,4936.90384802765,654.231535887595,1124.30193202761,1222.40158566844,3172.00667694486,9757.05445683581,8852.03162359231,-9.05633024978397,-10.1321937376879,-6.56253099689002,2424.14819984811,2265.97567494916,1508.76395633629,2297.12864440425,5165.56448410879,9266.79882395167,11640.1542803482,10315.4666855639,11775.1077399879
,28,7199.87792306984,17469.5249939897,18662.9570798941,1370.92388073178,446.283569397902,1413.44896658817,4778.61546992704,6038.41877832518,12646.0784037817,10747.0446392225,10314.8544367021,8822.16238677364,707.444487493425,17438.315994563,17545.6398644706,8589.34697392785,1075.98646146207,6148.09620630219,7260.86166170598,9786.89778659942,11787.1729514817,7675.98486912095,7353.79467515997,6477.75874821237,895.791099756402,11976.8767201742,15970.4977294106,7287.79358614332,853.689718982955,1972.68916058422,6338.49875150311,8404.84348263065,10112.1276822767,10950.5502262428,9819.75101450282,10492.3501219909,5036.98318878994,7515.73857786393,11726.5493502192,6517.3607652546,3399.788518803,5235.49385468161,8276.08429085863,8730.51389381512,9286.16067894782,11508.7498077206,11400.934478108,12554.6040401184,3305.93923519646,3591.65717241482,3330.71645723,9565.97432269431,7999.06856781452,9448.51014326815,7594.37400284745,9199.63049422401,10539.7871925317,10680.8414305907,7546.94883143095,8530.43980033878,494.172916395861,202.074666385543,854.402807644919,9937.83987806787,9725.7579211268,10235.9942384527,9941.67154301911,10389.9508379293,10220.3341073818,2541.00371402918,1619.87874144269,1500.34644168109,6.57775877182212,20.2290005534323,26.026240787296,7240.31809971238,6397.04365659248,6881.81042420938,1272.41600237645,2085.832441169,2245.04195265532,4411.36238550458,11036.6370441284,10231.4190454556,-3.10989055450409,-8.4364718008901,5.86484166719492,3682.04350410443,3339.7594744558,2425.48568703219,3782.69436719591,7297.22430201962,10811.7776057941,12427.3084952004,11744.2547583766,12618.092891947
,29,9093.27824350902,17540.9815161911,18709.443444305,2356.69581612231,858.299087445618,2514.45934717519,7009.76709684957,8462.11739790779,13906.0939988035,11318.7737518157,11093.1794382167,9892.20641868842,1145.4731340487,18023.1368745282,17648.1175457461,10154.7024239723,1977.17127053076,8114.81015086381,9237.66618895551,11431.8726910652,13231.4445127157,9081.63464037976,9028.94468917456,7999.04919079357,1239.15841628963,14113.5554753619,16431.540336097,9088.8429429928,1578.2475740599,3275.61485042114,8924.47740461594,10609.9126909477,11774.7538808872,11899.7694224131,11723.9840582119,11665.7918422407,7100.08934522141,9798.24034729271,13947.1007727179,8755.63847577517,5485.94774966046,7822.20498299818,10082.3705500398,10440.6654577968,10729.2091722931,12280.7044282374,12502.2351150957,13203.2223410754,4922.15094282734,5354.91887038219,4966.74057469336,11342.7489027999,10551.0014533147,11510.5287328917,9809.08283459357,10605.9170772582,11773.8672013472,12322.8462592063,9981.87361453352,10679.4888530443,795.040763715765,323.684221989025,1359.70028959371,11012.6800932158,11531.4980770623,11593.7728655492,11269.9450058957,11527.7305405961,11388.7485786179,4326.08781857005,2871.1232121722,2642.63873150345,18.7394410687584,39.1837634044459,54.2112305981391,8786.66083408904,7836.36911784348,8542.96480617865,2302.84808891458,3636.42146188001,3904.25576246573,5631.2756527536,12042.596787422,11295.9538385543,-1.40629874449496,-2.07575190716216,3.93746354160612,4999.21524865895,4377.90858267959,3507.90218764252,5800.36475012408,9323.14221264151,12022.0044934269,12989.0009990965,12836.0987734617,13216.9502271091
,30,10913.9487753201,17600.0333457475,18748.3998902405,3972.99787053064,1597.36298967084,4338.90380573351,9290.97998229767,10705.5717860613,14753.3722000572,11718.2755152879,11622.2963227405,10652.5695309016,1888.01449199663,18445.2665702281,17718.0712870467,11358.5276687238,3496.78320263674,9887.91627806477,10889.8993526917,12620.9420904578,14110.3925663997,10150.1404185045,10378.6081842488,9319.52711608166,1764.94043602639,15859.8472856459,16761.6842196811,10554.7021359424,2855.82313940238,5227.54213471537,11187.3255094684,12244.2965997516,12838.1671555951,12515.786982939,13046.6631338209,12430.2902270606,9331.74744796453,12031.7703570124,15693.5697274264,10643.106129079,8079.28320937013,10281.4901113908,11342.6177606582,11579.9567498647,11652.0139500821,12823.6515683511,13300.3680545592,13640.9503798988,7085.98894340867,7801.63639277613,7292.54968058299,12484.8744706238,12599.447271585,12888.5987907766,11560.9851167434,11542.4116365939,12588.3089224047,13373.3874075743,12051.3827306238,12298.584382345,1246.34310120594,516.406710061778,2136.88646985626,11622.8810127721,12724.1014809966,12412.0735744103,12183.8483638746,12291.4860465782,12169.5407774672,6940.84379440525,4887.9417214442,4537.43099826945,40.4383413823462,67.911505328746,99.425718775643,9815.27653039658,8935.93571261327,9701.253193997,4049.93024217577,6038.14998944939,6452.6577082739,6763.29620431398,12762.6311293612,12074.7706366888,5.40558756112387,5.37471890408597,9.76148393086169,6095.20547683943,5302.79123451263,4689.8059736763,8139.20230777989,11064.5132523217,12876.3684046011,13372.1525704798,13601.6692766751,13622.6294797407
,31,12447.547962575,17649.8986645219,18768.9683715246,6143.57005124592,2852.83762561805,6830.43230928975,11215.765547223,12523.8082118679,15317.2547637616,11983.5890919376,11948.269507725,11184.24658726,3011.73990609033,18743.7465094288,17757.0574594786,12208.6165754939,5603.87533500424,11267.2847377033,12085.0714232112,13419.5571055902,14826.495963199,10897.8046578737,11330.2947826199,10267.9277120032,2500.8268505787,17175.9350924468,16991.2198350714,11589.0385038741,4749.31428553175,7520.39837712741,12872.9546943546,13246.4808685492,13467.4018422343,12909.2028044951,13832.7939707958,12913.3509217883,11590.1549045268,13960.1643103672,16963.1354019176,11956.7894656249,10372.8240088212,12259.9113554846,12062.0546468938,12215.4766135781,12156.7236609107,13184.2390627733,13853.9347631717,13936.9981301875,9188.86982172163,10209.6916172008,9641.18242190184,13102.9638074516,13888.6067422673,13654.2250804531,12674.477803212,12105.96270654,13086.2040665914,14016.1091923829,13487.9222883271,13329.0038853117,1916.36306378998,788.857875710453,3285.22832347926,11954.4427280535,13379.9991621191,12824.7535570761,12755.5813134731,12774.9848819711,12678.7427461993,9751.06752410548,7622.10548099619,7173.99083074879,72.9229139539848,115.178044933341,174.719574895444,10329.8042083891,9539.1296689083,10325.7358587954,6630.9248257503,8888.96014785861,9329.50426561319,7694.67080584056,13252.6171289762,12610.6748636848,13.2971652306733,17.1602567518166,18.0631363719885,6934.970719533,5988.88844108212,5521.46289117809,10183.5152956075,12335.2257857409,13426.2068945551,13628.5867968972,14122.9135452081,13882.241475121
,32,13666.1635778688,17674.885333529,18782.7567416613,8218.9062881822,4567.8265404621,9284.74714318247,12691.3047647627,13858.518282677,15680.045298827,12148.8644014028,12157.315122119,11528.5853609789,4479.52518058546,18958.4437272858,17795.4626317476,12786.3422840494,7782.17143847962,12244.5901602625,12881.6445843888,13928.5371607542,15188.538196851,11408.0486006583,12003.3778054203,10943.7343309351,3433.56069872177,18138.2429093577,17161.3745893454,12262.6016868997,6902.99232352023,9640.84548235272,13963.5112741484,13806.3558830939,13858.3784417597,13153.9777999006,14307.6182796067,13218.6711738635,13651.5765370744,15482.9907169803,17861.3061663125,12792.9527669516,12256.5375763097,13665.9622409995,12425.1126388141,12527.6426619139,12438.9127070779,13430.3598003538,14234.9349175331,14122.8668540039,11164.3943944847,12525.5834603637,11979.9586791297,13453.2934442041,14599.1475046755,14068.9878440381,13312.1306822172,12440.2382699948,13377.7219495465,14451.8404298848,14423.4767037,13986.2316887305,2773.06541274627,1105.98251625387,4774.09349337211,12118.5285382242,13704.3594539931,13055.975327936,13121.5603260151,13088.9876103548,13007.5323842015,12175.6980178667,10257.1700633267,9861.66164428147,116.0886040687,173.872075309508,272.231916496295,10538.0618683174,9783.61567645574,10556.7715940017,9594.36316166313,11450.2168490201,11862.0217724188,8385.43998159619,13569.8217406445,12989.4344273268,26.0428311904316,42.0426915194148,30.5197153082654,7458.03927377622,6424.49849486754,6178.61821726586,11780.4135241036,13143.0216881423,13761.6097903817,13786.518321171,14478.9614436693,14047.8715461019
,33,14579.8499206439,17699.7078963633,18794.0767653938,10100.8477572296,7268.81172278102,11497.7715340057,13674.030084727,14720.3408845519,15905.9170902843,12212.5129741373,12275.4017064089,11756.0145100715,6628.03531519968,19129.7442356239,17825.08178736,13150.7207946893,9744.70280903138,12845.4739741707,13356.3872166476,14232.5902631084,15543.2268932295,11767.0432004707,12452.8215487833,11397.8759297521,4865.51890810972,18847.2381854141,17293.5675047189,12663.9501489393,9082.56573573001,11336.6847115701,14619.6151402434,14128.9138674506,14119.6500765019,13316.1622077992,14575.1163737026,13408.3320392828,15359.4656403396,16625.6986085543,18501.7523732875,13306.5974160664,13586.4612720362,14567.4755020632,12593.6161818103,12669.8001344195,12572.9704971925,13586.1516208378,14461.5190585369,14254.4570867642,12794.5940833142,14477.921377713,14005.9340383302,13663.9350469479,14945.0221471547,14295.8679577091,13642.0461448825,12633.5840792878,13553.7401527994,14731.1515602796,15024.0650531516,14417.5771880807,4186.64318476431,1658.52852789819,7149.94070431565,12210.84770174,13848.962907692,13146.9838278226,13352.0637305994,13301.4076586694,13202.6786807137,13904.3932307277,12540.8383902085,12211.1411233041,201.219287629724,277.201974868924,442.621232462399,10563.583346696,9821.22491487378,10580.4011681289,12326.0563826671,13401.5117787919,13748.3830366614,8852.62909857605,13766.0042506834,13230.177010738,51.5908070635951,79.7185773428509,58.7172910364852,7739.28403314144,6664.04314932694,6590.96216571591,12787.1124222951,13570.3161237462,13943.6302626991,13870.3004314938,14702.1860597524,14135.2906350339
,34,15266.7256488736,17715.0694976454,18818.4445573928,11566.2517499812,10113.5189621098,13207.0816755869,14314.8948957512,15250.5484465902,16035.3197742448,12237.2877554011,12329.6573252237,11880.9929933499,8783.19983220144,19255.623514054,17840.9301730295,13394.7121975092,11236.5749471625,13208.3764685658,13653.5307897938,14422.8615627518,15675.9946423363,12059.3740358477,12807.9039549926,11756.6120381976,6805.56978933031,19393.9966082017,17411.4029494262,12907.5879291891,10760.1307203909,12495.621412261,15028.1652019659,14368.3316261699,14315.1285684617,13452.0942888306,14753.9876043225,13555.0363576173,16719.0543722734,17487.6843332197,18979.5288582901,13675.2789109923,14491.5961631594,15144.9404590575,12692.4871442662,12751.7196385938,12672.344471615,13686.4500675578,14622.0453045841,14314.8854276246,14074.7463003491,16012.4822352617,15638.2590282781,13834.4335519964,15160.8982161679,14458.5229365232,13833.3397489633,12767.59610569,13694.4934086208,14939.79284094,15454.7327801852,14746.238779803,6124.39896872396,2443.60624884615,9651.86223275853,12282.2280154238,13920.7736195881,13227.8936880229,13532.7671136793,13456.247120401,13357.05899063,14953.3768234397,14164.8827349492,13919.3023972351,326.805171497392,428.897192726688,705.336872720873,10550.4143305379,9781.2124575689,10534.6469592682,14444.7184508169,14658.3587035226,14915.2267100551,9153.27056528725,13904.6584743467,13406.5440801527,80.968781403968,156.188039824825,114.992679812301,7888.70765589335,6807.41703822474,6845.6785761566,13320.7326369319,13765.5962182427,14049.7939200021,13908.694410907,14826.3520324103,14190.8213389768
,35,15734.4597074962,17738.1691179993,18837.9159498388,12503.4531539565,12585.1919753055,14283.750921954,14645.0000369621,15494.3806775672,16097.9336285159,12242.0872728778,12330.272440712,11921.6833148164,10711.2726036575,19353.4508600137,17850.4164524962,13534.8238194812,12092.1317468769,13383.0333354181,13787.8175091705,14499.7542454852,15726.9453813983,12247.8431283869,13024.5577406269,11974.4781665501,8861.21718993549,19807.8623509314,17496.5732093993,13020.5084629578,11767.3443838272,13099.9784470943,15245.5731882556,14509.6837222792,14440.0624527466,13539.6802643018,14847.0526796515,13634.3453640076,17732.8870810342,18114.4336574582,19322.9390569425,13887.9932019444,15021.7138890291,15459.5378644029,12722.0279488023,12781.5177396305,12713.3833248591,13726.1979766725,14705.0767069653,14342.1779269521,14995.8642235845,17101.0307288644,16827.405596236,13926.2910709191,15248.7966144394,14530.4415500813,13920.5608556899,12830.1687819485,13771.0975289155,15069.6181923364,15681.0162949994,14941.482123606,8472.66693767672,3533.67917093502,12178.4863378412,12302.6732705269,13917.8609369028,13238.5105069366,13641.7717546829,13539.1922185016,13438.2370863478,15436.6429109069,15044.2505928379,14865.0553531904,551.076393627187,650.671650206586,1095.8230260026,10481.6274855191,9712.16320814792,10450.6091165074,15727.2069688228,15281.1231701766,15489.1614177282,9320.3315564348,13980.072591496,13490.0757356925,161.92969085309,294.882676138773,199.543071055039,7983.18742965288,6860.9131292692,6970.83201835579,13508.0240280305,13823.505883056,14086.2986951153,13898.7639815806,14849.7339255445,14195.0007115447
,36,16042.5120271339,17751.5485262243,18840.4564529312,13052.8269406831,14422.4036380566,14883.2351545975,14794.9685767724,15588.3640171045,16117.0036209231,12217.9274201256,12289.1273978419,11899.7994319486,12227.4700676109,19418.3054365956,17835.1231321786,13601.9124271995,12452.051420121,13457.6588262359,13857.1388709183,14515.9562682913,15746.9332504937,12354.4796854417,13145.9906212751,12122.8660153533,10935.0810546856,20090.1980137106,17553.7851669436,13056.7508478121,12216.930715138,13338.4709179273,15337.0056054252,14570.3428151603,14490.948487781,13588.1511467611,14888.8387543292,13668.8942196955,18452.2716613078,18558.5097526851,19569.0275804058,13996.0823239546,15316.9615035454,15592.9624420642,12712.4848430453,12747.8527082093,12719.5013912517,13739.1918988974,14742.7149607802,14323.9988736518,15629.7521030409,17848.7675820662,17659.8977425469,13961.3363465098,15267.1223074218,14555.2383480231,13919.2351556559,12846.8940357099,13794.3546490293,15152.9243196016,15783.5463906824,15035.9389512812,10798.7602023344,5113.6402776717,14378.5419439336,12310.9624815621,13866.8269481743,13228.8650295605,13681.4980286704,13559.8139207484,13467.1437016422,15613.5883239623,15416.1654597685,15285.736727701,901.651131035846,998.949629072024,1709.97972296699,10405.5338867578,9624.43441313568,10355.8747188656,16342.1363899832,15528.7520828483,15693.6572902033,9404.03697330963,14015.2529872025,13530.4994357876,287.059946574071,549.405884138857,350.245239670986,7992.50970760175,6867.93916260063,6998.96163809052,13530.5672110247,13802.7087404246,14073.0107685544,13870.4454028514,14821.5366854765,14174.8115853489
,37,16262.2377680165,17762.6787872356,18829.9724011141,13392.4725286493,15685.2670873318,15245.5163770325,14854.3567228409,15626.9294120158,16129.8770555833,12192.8583331885,12285.5270022943,11878.6207353342,13334.8225685683,19473.1954561459,17823.4584421866,13615.5102283386,12566.230649718,13485.4859788627,13877.5149638963,14519.8947911019,15731.0404594777,12436.7114909164,13236.5212760215,12208.7453000175,12838.7866179042,20299.2987686369,17594.5657389018,13072.2478759309,12377.6225578149,13432.2294243981,15368.7828874717,14612.0571403613,14539.5974127943,13618.8482551941,14909.2445709188,13690.9040701853,18981.1591261541,18883.0974438991,19755.2555245066,14053.6774639103,15482.3904351668,15649.3885289308,12699.0472809457,12730.7623930845,12705.7986013644,13727.256666129,14734.4293881673,14317.6646832334,16081.7244586753,18390.0971487869,18258.9582224397,13982.8585602918,15262.2973107884,14569.8248941914,13906.3010027318,12859.2209340294,13816.074163992,15212.834829351,15842.3253347099,15103.1656605952,12960.8754088885,7236.76273987743,16111.0545158574,12292.2706643289,13831.9659925522,13212.5890056515,13690.1080581412,13582.192460114,13469.4263586143,15685.259234648,15577.7079824777,15475.2518007602,1447.87309913765,1494.07439636501,2591.58369509373,10349.0910704045,9561.80533166598,10288.1384246611,16631.6610598604,15638.7407917183,15773.4128243526,9458.84377452303,14035.6152821591,13536.1747854746,528.826907152124,990.813274715976,618.905719173099,7984.53182730024,6854.563664223,6995.67861957013,13518.1399779582,13802.9593814525,14058.3895132406,13824.7501189115,14783.6293743405,14124.4422172738
,38,16406.4195634396,17756.1150864814,18824.9359470314,13584.9026894489,16434.645723597,15429.4333343156,14879.266952845,15642.1306316529,16119.7482215774,12142.3392961064,12254.6345220428,11859.5171990303,14098.9577314194,19498.3819102258,17808.4256721413,13615.593595179,12567.1472084048,13479.4580494336,13882.2034650474,14501.7664504835,15693.311304129,12477.4713039674,13300.8668244456,12274.1511355624,14376.4590933526,20438.6428479665,17620.5406308893,13076.8422597439,12401.0267214671,13466.5768023037,15373.5250888715,14618.4025158885,14557.1609118726,13635.7014349713,14910.9863685502,13705.460999069,19376.8291578715,19125.3591480151,19898.0349642389,14083.6059625772,15564.1655266129,15658.6142439789,12680.1287912319,12702.2374154186,12688.8619408843,13709.2373815343,14703.9781551792,14298.9835851951,16400.3666466044,18782.0868519635,18674.8961256568,13993.8198763828,15246.0115661649,14564.0613048359,13872.053550722,12852.5954954244,13821.2337707334,15246.9498423354,15868.9089831585,15139.9738375978,14725.4681480696,9528.48638404944,17363.0209805486,12282.4422661977,13793.5083948158,13204.6397450091,13675.2474471103,13578.7110155086,13453.8841227992,15699.1817658276,15633.4637143226,15541.602943206,2335.87052895343,2265.55706226852,3901.43613923233,10307.5052139841,9505.19348209969,10234.5160174922,16733.5364236761,15674.7025319468,15771.6102650216,9502.60020419143,14045.66948932,13542.1727287218,954.234140223357,1778.6065697807,1082.75821450234,7939.11748707556,6828.35216792668,6954.5556604686,13502.4493050165,13760.9197435022,14029.3056054755,13778.2474955149,14742.6720255171,14093.1164808902
,39,16498.0162173537,17740.3877491853,18822.8585242425,13676.8612824426,16879.9703587727,15536.7623303301,14902.5188243036,15635.4312079779,16099.7840062169,12131.4226015748,12237.3418256256,11832.664552538,14629.7780103227,19507.1517892482,17788.9787669256,13614.8061902658,12553.7191527156,13472.9839413377,13875.143444309,14495.5227577122,15664.7901252597,12500.2535989598,13340.9947733426,12299.9929065476,15525.9694725646,20544.0718315655,17651.6892983942,13072.7228960248,12393.9063273258,13491.5074540389,15369.6298985743,14621.6879353605,14579.8336004642,13643.6735787277,14904.976646159,13708.656682501,19658.6343651909,19300.1067082583,19996.6846908348,14108.4672858537,15579.4272717082,15647.8757195615,12661.7329347447,12673.097521644,12669.0436314366,13664.8257442933,14681.5674411446,14271.4046890851,16644.3127494281,19070.9550703118,18980.0455315563,13998.1968881536,15226.5342540877,14558.1644704922,13868.1597443804,12846.1616919066,13817.210170584,15266.7145158699,15884.3538326647,15169.6342724168,16051.0927283256,11877.1898999645,18257.946140597,12244.762463606,13761.7388252083,13182.7352702852,13666.2767905658,13571.1470174392,13443.7748198507,15688.568098772,15642.8695821931,15565.6162486961,3684.63901276001,3397.01068662089,5730.3336433526,10282.4157474357,9464.78520949782,10207.1224113877,16755.0359121855,15679.9799209432,15761.7189013295,9531.18637543216,14058.0648461362,13549.3818539761,1686.07058752358,3071.31039862717,1846.91029153524,7931.92284239134,6783.91081194061,6936.02991268495,13492.390271935,13731.7188140527,14002.2205354938,13731.3800404978,14695.1694973376,14048.0306270425
,40,16555.7938149705,17738.4275041126,18829.8120246944,13713.3915975494,17138.5937840959,15589.9451677338,14934.3059023536,15616.101495997,16078.9305309226,12136.8644122499,12211.9169633947,11790.6355875673,15025.0913527933,19503.8045113114,17753.9297129062,13620.1655425367,12530.9442993242,13474.5201777953,13872.8707474635,14481.5993311154,15652.8860174594,12502.1951758923,13334.2929237228,12324.3061798928,16398.9297833493,20621.1271522878,17689.5511674765,13055.3596316623,12372.9477111114,13499.3478635783,15357.966344963,14602.306927552,14592.8169409246,13649.943549325,14902.6766677539,13691.6750770252,19859.1941695938,19435.6186994299,20070.8829125354,14119.5490083706,15553.4288285294,15609.4612107024,12640.2497516878,12612.380233503,12654.627175137,13598.7423282479,14670.5560353274,14221.2017647785,16836.4605209614,19299.1143886445,19222.4968469033,13986.4214391863,15210.9170470034,14544.0305017176,13870.6129534986,12835.2618086883,13793.5157107123,15271.2866607824,15875.4635813289,15170.3659398066,17079.5525034651,14143.6621984181,18945.7148334393,12221.7415336806,13729.2386871304,13133.3955647272,13661.5058169024,13551.4104796292,13419.0283613329,15664.6183954564,15617.0726660447,15556.5133078188,5449.20186313677,4924.45351944473,7942.46883561139,10254.4259883571,9424.15995331366,10186.0948103777,16735.2912177718,15658.8626985261,15749.6073206735,9545.86615547197,14064.7689835299,13571.4097220649,2802.26133789102,4947.1957594503,2959.28681620847,7939.98956508314,6729.40508265146,6922.98994199901,13499.1188434208,13677.1338170409,13968.433937255,13694.7062259635,14649.5142558369,13997.5209225054
