,Temperature,A1,A2,A3,A4,A5,A6,A7,A8,A9,A10,A11,A12,B1,B2,B3,B4,B5,B6,B7,B8,B9,B10,B11,B12,C1,C2,C3,C4,C5,C6,C7,C8,C9,C10,C11,C12,D1,D2,D3,D4,D5,D6,D7,D8,D9,D10,D11,D12,E1,E2,E3,E4,E5,E6,E7,E8,E9,E10,E11,E12,F1,F2,F3,F4,F5,F6,F7,F8,F9,F10,F11,F12,G1,G2,G3,G4,G5,G6,G7,G8,G9,G10,G11,G12,H1,H2,H3,H4,H5,H6,H7,H8,H9,H10,H11,H12
,65,20235.4587144614,20144.9206965904,21233.9332843626,18610.0114309228,21771.9020044828,20329.5845957714,19586.9000931908,20372.7522408399,21238.3740204281,21065.2049301012,20808.2594641997,21295.5898735892,18662.3589503759,22376.3233652587,21257.3130322792,21883.5682119446,19675.8057929941,21560.9788674991,21837.3887459245,21147.4288986071,22502.9520858609,21388.1876314212,21793.1287568788,20771.5438670213,20195.595320511,23241.9916596632,20400.245337375,19612.8551924757,18871.3445655105,20228.3223999506,20524.5946771056,20368.2428917779,20707.6789237157,20640.5210624925,21253.7834253626,20335.1497849561,22479.911025435,22608.0246214192,22560.4140882312,20233.2673039328,21705.1713750692,21448.670802031,20859.7830967579,21050.0499561313,21029.3503733383,21937.12612369,22186.8338293984,22055.2046367097,19432.9471199035,22305.6942374444,21852.5809354694,20849.873900121,21436.7159828934,21693.1863752139,20950.5837594377,20227.8715578806,21365.5900308294,20584.1450503969,20767.767439432,20331.9055916444,20792.490181847,19215.5684997032,21844.5156960167,19589.1582250887,22074.4898978203,20711.2124647269,21292.6559985865,21350.9172189485,21025.6914025209,21483.1748589112,21168.9975880404,21147.4330639563,11604.8235931882,11555.3648687801,14803.7779304931,20135.1971160401,20496.5681425111,20864.0402866176,22114.3909546126,20957.6596352899,21058.8673790467,18472.8145687865,23358.2692011724,21877.3783071452,7777.71332524821,10266.9680707384,8188.05279099534,20270.0057112107,21823.7546497967,21079.9616726076,21536.4644216586,21951.5530155267,21578.4430947579,21899.017657979,22321.6629190771,22083.2853097771
,65.5,20206.301198875,20060.068809055,21155.1547507704,18574.0157758715,21716.3619855222,20274.057639129,19541.4001685661,20355.6491336012,21180.4948745073,21005.0810151476,20782.7144156783,21251.5590274465,18626.7627694621,22288.9561906701,21181.8775915472,21822.2791472477,19672.4970779367,21528.8146536346,21786.6286967066,21098.8577942862,22439.5058101064,21354.467995263,21766.7094510416,20766.7375367916,20142.3926115688,23148.2969423279,20359.5510631641,19610.0779769887,18915.0062193528,20226.2861612496,20484.7824303122,20372.9730448426,20680.7218363236,20635.1755184646,21252.9571407874,20354.9414414506,22387.1532681709,22509.430796854,22476.5936888141,20226.5725927516,21660.5284038023,21413.2494339933,20835.2307386631,21020.3154628679,21019.5881847485,21908.9633547681,22162.4895275786,22046.5431236602,19331.6033446135,22199.3231946132,21742.2661302659,20848.1101194166,21403.5272626959,21679.0198563049,20939.6813416595,20241.1387434176,21364.8707589344,20603.6570955587,20778.4298540383,20369.5782928846,20682.9821275777,19095.451495509,21726.4017161794,19536.9702064478,22025.9636531706,20689.0850698296,21276.4658802398,21345.9706225278,21015.9747443398,21450.2694245587,21148.6043660511,21132.9303860079,11517.8470498983,11456.6903476417,14677.2062598576,20094.5050451121,20469.2545982734,20847.7574759916,22088.802628084,20922.5904765996,21032.3591582401,18443.0577384173,23303.1872462634,21853.01658621,7685.00863590857,10155.652236037,8073.61145357215,20188.2787661708,21761.0117601936,21033.7094441081,21494.0009745242,21898.5610302359,21490.394174362,21826.573260344,22263.2327981616,22048.9794353068
,66,20177.1436832886,19975.2169215195,21076.3762171781,18538.0201208202,21660.8219665616,20218.5306824866,19495.9002439414,20338.5460263625,21122.6157285866,20944.957100194,20757.1693671569,21207.5281813038,18591.1665885483,22201.5890160815,21106.4421508151,21760.9900825508,19669.1883628792,21496.6504397702,21735.8686474887,21050.2866899653,22376.059534352,21320.7483591049,21740.2901452045,20761.9312065619,20089.1899026266,23054.6022249926,20318.8567889532,19607.3007615016,18958.6678731952,20224.2499225487,20444.9701835188,20377.7031979073,20653.7647489315,20629.8299744367,21252.1308562122,20374.7330979451,22294.3955109067,22410.8369722888,22392.773289397,20219.8778815704,21615.8854325354,21377.8280659556,20810.6783805682,20990.5809696046,21009.8259961587,21880.8005858461,22138.1452257588,22037.8816106107,19230.2595693235,22092.952151782,21631.9513250625,20846.3463387122,21370.3385424984,21664.8533373959,20928.7789238813,20254.4059289547,21364.1514870393,20623.1691407206,20789.0922686447,20407.2509941248,20573.4740733084,18975.3344913147,21608.287736342,19484.7821878069,21977.437408521,20666.9576749323,21260.275761893,21341.024026107,21006.2580861587,21417.3639902062,21128.2111440618,21118.4277080595,11430.8705066085,11358.0158265034,14550.6345892221,20053.8129741841,20441.9410540357,20831.4746653655,22063.2143015554,20887.5213179094,21005.8509374334,18413.3009080482,23248.1052913545,21828.6548652748,7592.30394656892,10044.3364013355,7959.17011614896,20106.5518211308,21698.2688705905,20987.4572156086,21451.5375273899,21845.5690449452,21402.3452539662,21754.1288627089,22204.8026772462,22014.6735608365
,66.5,20147.9861677022,19890.3650339841,20997.5976835858,18502.0244657689,21605.281947601,20163.0037258441,19450.4003193167,20321.4429191238,21064.7365826659,20884.8331852405,20731.6243186355,21163.4973351611,18555.5704076344,22114.2218414928,21031.0067100831,21699.7010178539,19665.8796478217,21464.4862259057,21685.1085982708,21001.7155856443,22312.6132585975,21287.0287229467,21713.8708393673,20757.1248763322,20035.9871936843,22960.9075076573,20278.1625147423,19604.5235460146,19002.3295270376,20222.2136838478,20405.1579367253,20382.433350972,20626.8076615394,20624.4844304088,21251.304571637,20394.5247544396,22201.6377536426,22312.2431477236,22308.95288998,20213.1831703892,21571.2424612685,21342.4066979179,20786.1260224734,20960.8464763412,21000.0638075689,21852.6378169242,22113.8009239391,22029.2200975613,19128.9157940335,21986.5811089508,21521.6365198591,20844.5825580079,21337.1498223009,21650.686818487,20917.8765061032,20267.6731144917,21363.4322151442,20642.6811858824,20799.754683251,20444.9236953651,20463.9660190391,18855.2174871205,21490.1737565046,19432.594169166,21928.9111638713,20644.830280035,21244.0856435463,21336.0774296862,20996.5414279775,21384.4585558537,21107.8179220726,21103.9250301111,11343.8939633186,11259.341305365,14424.0629185866,20013.120903256,20414.6275097979,20815.1918547395,22037.6259750268,20852.4521592192,20979.3427166267,18383.5440776791,23193.0233364455,21804.2931443396,7499.59925722928,9933.02056663404,7844.72877872576,20024.8248760909,21635.5259809873,20941.204987109,21409.0740802555,21792.5770596545,21314.2963335704,21681.6844650738,22146.3725563307,21980.3676863663
,67,20118.8286521157,19805.5131464487,20918.8191499936,18466.0288107176,21549.7419286404,20107.4767692017,19404.9003946921,20304.3398118851,21006.8574367451,20824.7092702869,20706.0792701141,21119.4664890184,18519.9742267206,22026.8546669042,20955.5712693511,21638.411953157,19662.5709327642,21432.3220120412,21634.3485490529,20953.1444813234,22249.166982843,21253.3090867885,21687.4515335302,20752.3185461025,19982.7844847421,22867.212790322,20237.4682405314,19601.7463305276,19045.9911808799,20220.1774451469,20365.3456899319,20387.1635040367,20599.8505741473,20619.138886381,21250.4782870618,20414.3164109341,22108.8799963785,22213.6493231584,22225.1324905629,20206.488459208,21526.5994900016,21306.9853298802,20761.5736643786,20931.1119830778,20990.3016189791,21824.4750480023,22089.4566221193,22020.5585845118,19027.5720187435,21880.2100661195,21411.3217146557,20842.8187773035,21303.9611021034,21636.520299578,20906.974088325,20280.9403000287,21362.7129432492,20662.1932310443,20810.4170978574,20482.5963966053,20354.4579647698,18735.1004829263,21372.0597766672,19380.4061505252,21880.3849192216,20622.7028851377,21227.8955251995,21331.1308332655,20986.8247697964,21351.5531215012,21087.4247000833,21089.4223521628,11256.9174200288,11160.6667842266,14297.4912479511,19972.428832328,20387.3139655602,20798.9090441135,22012.0376484982,20817.383000529,20952.83449582,18353.7872473099,23137.9413815366,21779.9314234044,7406.89456788963,9821.70473193258,7730.28744130257,19943.0979310509,21572.7830913842,20894.9527586095,21366.6106331211,21739.5850743638,21226.2474131745,21609.2400674387,22087.9424354152,21946.061811896
,67.5,20089.6711365295,19720.6612589134,20840.0406164015,18430.0331556661,21494.20190968,20051.9498125591,19359.4004700673,20287.2367046461,20948.9782908246,20764.5853553332,20680.534221593,21075.4356428755,18484.3780458068,21939.4874923152,20880.1358286192,21577.1228884604,19659.2622177067,21400.1577981768,21583.5884998348,20904.5733770022,22185.7207070885,21219.5894506303,21661.0322276927,20747.5122158728,19929.5817758,22773.5180729866,20196.7739663209,19598.9691150405,19089.6528347222,20218.1412064458,20325.5334431383,20391.8936571015,20572.8934867553,20613.7933423528,21249.6520024866,20434.1080674286,22016.1222391143,22115.0554985932,22141.3120911454,20199.7937480268,21481.956518735,21271.5639618424,20737.0213062836,20901.3774898142,20980.5394303893,21796.3122790807,22065.1123202992,22011.8970714621,18926.2282434532,21773.8390232883,21301.006909452,20841.0549965993,21270.7723819058,21622.3537806694,20896.0716705468,20294.2074855659,21361.9936713543,20681.7052762059,20821.0795124641,20520.2690978455,20244.9499105003,18614.9834787319,21253.9457968295,19328.218131884,21831.8586745719,20600.5754902407,21211.7054068525,21326.184236845,20977.1081116153,21318.6476871488,21067.0314780941,21074.9196742144,11169.9408767389,11061.9922630882,14170.9195773158,19931.7367614003,20360.0004213228,20782.6262334874,21986.4493219695,20782.3138418386,20926.3262750133,18324.0304169404,23082.8594266275,21755.5697024693,7314.18987854999,9710.38889723112,7615.84610387942,19861.3709860111,21510.0402017812,20848.7005301101,21324.1471859868,21686.5930890734,21138.1984927788,21536.7956698038,22029.5123144995,21911.7559374257
,68,20060.5136209431,19635.809371378,20761.2620828092,18394.0375006148,21438.6618907194,19996.4228559167,19313.9005454426,20270.1335974074,20891.0991449038,20704.4614403796,20654.9891730716,21031.4047967328,18448.781864893,21852.1203177266,20804.7003878872,21515.8338237635,19655.9535026492,21367.9935843123,21532.8284506169,20856.0022726813,22122.274431334,21185.8698144721,21634.6129218556,20742.7058856431,19876.3790668578,22679.8233556513,20156.07969211,19596.1918995535,19133.3144885646,20216.1049677448,20285.7211963448,20396.6238101662,20545.9363993632,20608.4477983249,21248.8257179114,20453.8997239231,21923.3644818502,22016.461674028,22057.4916917284,20193.0990368456,21437.3135474681,21236.1425938047,20712.4689481888,20871.6429965509,20970.7772417995,21768.1495101587,22040.7680184794,22003.2355584127,18824.8844681632,21667.4679804571,21190.6921042486,20839.2912158949,21237.5836617083,21608.1872617604,20885.1692527686,20307.4746711029,21361.2743994592,20701.2173213677,20831.7419270704,20557.9417990858,20135.441856231,18494.8664745377,21135.8318169921,19276.0301132431,21783.3324299222,20578.4480953434,21195.5152885058,21321.2376404242,20967.3914534342,21285.7422527963,21046.6382561048,21060.416996266,11082.9643334491,10963.3177419498,14044.3479066803,19891.0446904723,20332.6868770851,20766.3434228613,21960.860995441,20747.2446831484,20899.8180542066,18294.2735865712,23027.7774717186,21731.2079815341,7221.48518921035,9599.07306252966,7501.40476645623,19779.6440409712,21447.297312178,20802.4483016106,21281.6837388525,21633.6011037827,21050.1495723829,21464.3512721688,21971.082193584,21877.4500629554
,68.5,20023.5415344116,19556.766110641,20692.8952775412,18356.0125127767,21375.0224873869,19939.3494346042,19272.0308585517,20266.7734990636,20834.2773268223,20653.7705214609,20633.3185290928,20982.5179153597,18391.4579589285,21775.2893939669,20734.4878322146,21456.56224174,19640.5259497456,21335.6126657129,21483.5349060561,20813.2343085303,22063.561417413,21153.0082176231,21603.7862132672,20720.672647335,19818.5935183662,22594.6589587279,20133.3388532027,19601.8812385028,19177.2433262257,20204.1321296558,20241.1777137346,20396.9259753532,20516.1173404595,20602.2750561437,21242.0871005108,20467.8263974359,21837.3837807762,21922.6971830231,21976.8832053611,20194.9772580933,21388.446017892,21202.7079273971,20683.4194106214,20841.2194078286,20956.7904036143,21746.9206583278,22016.4469248808,21994.7092701077,18731.9200602299,21567.5787385499,21089.7745275875,20832.0235079471,21201.010119848,21593.3182809317,20862.75510873,20312.4481453768,21356.959953882,20715.3669089928,20840.1474246447,20582.2212796438,20029.7554886971,18366.2231556403,21020.8848015024,19225.7201050557,21739.8129311195,20560.1052116327,21177.4408370071,21313.9088420726,20952.2035645189,21249.764117553,21020.6639440966,21036.2549136982,10956.4615995195,10829.0465789939,13898.4409020751,19850.0768587909,20303.1488154846,20750.6263520364,21926.6847573004,20708.8462289844,20869.5733228286,18267.682338538,22977.9618770213,21707.7602481912,7091.13484430246,9449.73833974539,7348.32911001366,19698.2084867911,21381.6705442122,20751.8568345721,21234.6632638045,21583.4732923082,20965.1260181429,21401.9065750864,21918.4065444283,21844.1497640564
,69,19970.5368991254,19478.2094280045,20644.1681514742,18318.2588933085,21303.624440056,19885.1812659543,19231.1066343725,20276.6207113899,20783.4557918417,20616.1418422632,20632.3091484099,20921.6236718958,18308.6229074115,21705.0682158409,20665.3622653608,21395.1245135049,19607.9034195153,21302.657744589,21430.7156310909,20770.9639842766,22005.0629869564,21118.2013107925,21565.3944063348,20678.9509178848,19749.7927857746,22511.4370471569,20119.3826258866,19615.790472698,19216.5066204431,20178.3449440553,20189.9573824667,20388.040410372,20486.9672729876,20593.1553857074,21230.1663665462,20471.3610549929,21754.7011607523,21829.251030003,21894.2355547683,20203.5550401196,21325.9934569584,21167.7620244273,20649.6545355717,20810.0381889984,20935.9300823469,21726.8217333052,21990.1913739783,21983.1573585678,18646.4430405413,21472.5543552236,20993.6939828392,20818.0919359169,21157.1197093444,21573.2549112779,20827.5044182776,20308.4548348942,21345.2703498882,20727.5465898066,20842.2936911462,20592.866346335,19926.5514773916,18229.3055240863,20908.5564223859,19179.3000832964,21697.5963596318,20543.3030764036,21158.0290084088,21300.4516706911,20932.4911332047,21213.5669950159,20987.6946608265,21000.8403483149,10796.2319816574,10665.1288295843,13741.3098227812,19811.2084949683,20268.1022637249,20732.7258526224,21883.3221643578,20667.0949253133,20834.0134397566,18240.3427020324,22929.9042264693,21680.73200079,6924.46472525692,9267.69725839195,7161.18770609517,19623.9253310171,21311.1834008203,20699.2133245606,21180.421089641,21533.9514834112,20881.7175843431,21344.6924105704,21869.0346736781,21806.7094184204
,69.5,19892.6014057723,19394.1528596491,20604.8678784061,18276.7212505675,21220.5638178415,19830.7788724084,19186.8894328781,20292.2273965436,20728.9545864619,20580.5603457436,20641.1940439875,20849.0296247422,18196.9735372306,21632.7449894979,20589.2060201424,21326.7560309477,19554.4512286487,21260.6512152709,21366.9250782808,20720.036694906,21940.4280324955,21077.3996980342,21511.8228680909,20608.184449254,19661.018744292,22420.1580126419,20100.6790605443,19632.4279944429,19239.0618761494,20133.1981890391,20126.0201295834,20362.1969519004,20452.2479961976,20577.0541020802,21208.0519459251,20462.0265090585,21665.1722667544,21727.1039963796,21798.7509778698,20209.9671222479,21240.9318441503,21121.2608857176,20615.1910126241,20768.1794509937,20900.5048918186,21701.0162064462,21958.0906559151,21960.0750254128,18560.6590858707,21374.4029783764,20896.3673694202,20792.9227094861,21097.1259582672,21541.9382214082,20773.2809389037,20285.5076588107,21319.0555577893,20731.3730639358,20830.2266793281,20582.4773683465,19820.7139181778,18080.8527192046,20792.3979127457,19130.9293104312,21649.5758925155,20519.5901543918,21131.6748981114,21274.1661983262,20903.1846823083,21171.7023383138,20942.0558259892,20950.6321456415,10606.1393096218,10476.7673852933,13574.3679343098,19772.0693931282,20219.1369417802,20706.797307691,21821.9219243026,20618.6676712527,20787.5999554079,18207.9304220309,22876.6892874666,21640.7337708702,6724.16442509752,9056.85101161731,6942.78932084531,19552.1949779731,21234.2766652043,20636.8281610814,21113.5326029418,21475.625695847,20796.2667103804,21288.6904961505,21814.6625763739,21756.0117250101
,70,19784.5818463436,19299.3731153997,20568.878188445,18223.5425159422,21115.2163591218,19767.2986335033,19126.4984950452,20296.5068520741,20666.6843858923,20538.6273310162,20649.9032301297,20759.2092285815,18053.9809667116,21548.1061274451,20497.9794969018,21242.5166447557,19473.3139222865,21198.7129750849,21281.3714013275,20651.8684035084,21859.922851865,21022.1862065596,21435.4780516228,20508.4745363487,19543.9232423889,22307.3327106617,20042.7927591165,19651.2206276088,19226.7293024525,20061.2868286687,20042.1721986611,20312.4048929854,20407.0322599326,20547.9574246295,21164.7568674973,20430.1252250366,21559.8497511479,21606.6358469484,21683.4636279295,20183.0826981088,21127.4194100533,21051.0197746578,20569.7827217568,20706.5152432503,20844.2919856813,21658.1659225342,21909.0381532209,21910.1067315303,18468.5876710254,21263.9565441315,20785.6968893513,20748.8319918393,21011.7662458199,21489.3266391001,20692.8380918792,20238.3248465802,21268.1926185716,20719.4342846753,20797.600818425,20545.2540219059,19703.6438392043,17915.0816506862,20664.0769731059,19078.0735140897,21584.4296108499,20481.1419724673,21090.0038640005,21223.889403946,20853.2453584885,21118.3801669082,20872.6283392157,20876.6930012596,10391.8461397036,10267.6233716531,13397.5262068855,19724.1707648137,20151.887794727,20661.9461351787,21732.1547175605,20554.3323906075,20722.5081803119,18163.8222876741,22808.99582303,21579.6716240684,6497.38153371226,8822.23289281863,6699.85241918763,19473.9102845913,21143.4315221898,20557.0683319919,21027.6822796118,21400.5066682506,20702.8257058251,21223.5099240627,21743.7324159271,21685.8413761423
,70.5,19646.5281007582,19188.0100414456,20522.9362315178,18149.132245083,20978.6174622517,19686.2441241178,19038.3030170888,20262.1715522709,20589.6594739134,20482.8822129554,20651.4071410881,20651.2453031841,17884.6973975998,21438.8362569513,20385.8157681057,21134.9000869594,19361.0009910901,21106.8443280294,21165.9330290887,20562.3584799254,21754.0252758766,20939.8904922615,21330.9281727472,20377.8481810373,19396.0988740923,22165.6365523899,19940.6411086022,19658.4553873569,19173.4824947773,19958.7835461421,19945.6214474613,20237.4184708359,20342.6393517151,20495.3825084887,21096.0220849635,20369.6885870624,21428.4003532293,21459.7490063446,21538.7358182568,20118.3025221613,20984.3615008377,20947.6201113581,20509.5264179508,20619.886545433,20759.6685709656,21590.3247505193,21830.2841410617,21829.2279257572,18360.55419078,21131.8255770337,20651.4852255619,20679.3050351531,20896.3640143443,21406.824790283,20583.2057293733,20174.631058914,21188.2788630727,20681.2088092987,20735.8102564368,20478.3417850568,19560.9868795643,17727.008795372,20514.1038750704,19010.1208098234,21493.1766041188,20415.1707960002,21023.3189866955,21141.98445655,20776.1325391779,21042.7963490775,20771.6303094019,20770.0858614521,10160.8788912301,10043.0170045431,13208.1690412626,19658.2965164239,20058.412749194,20588.4287981756,21608.0739696088,20466.3963424358,20631.1791912728,18098.6194301503,22716.0837688467,21491.4968454683,6255.77505449377,8571.85618493293,6443.74124802309,19380.9051822779,21029.2719649066,20449.2465052834,20914.6275289219,21301.5306914439,20592.8624334555,21138.6749427122,21647.4755489829,21588.3542541931
,71,19480.8610903354,19052.0854468439,20456.4343157186,18048.830162824,20809.5998223776,19580.1157908285,18920.0523453498,20184.6424378086,20491.9976547444,20403.1097825295,20638.593933564,20525.2991508565,17693.1697793765,21300.0811960862,20248.2106672184,20997.9463257711,19221.2584420656,20984.3254188235,21024.2663181815,20443.3769203667,21615.7954601946,20827.6142239998,21195.7146059508,20221.5907205822,19221.7186441436,21990.9375225645,19794.2218877001,19644.82356302,19075.8878728777,19826.4807870877,19834.3425535256,20143.800696956,20253.6702659348,20413.1374546983,20997.9525996689,20279.6061022067,21264.8338557865,21283.8190900119,21364.3101540866,20010.3351215901,20810.1795886014,20812.6484025875,20430.4809048619,20502.4946483866,20644.4929624114,21489.80291461,21719.7277652914,21714.1324133353,18228.6329480631,20973.4943001126,20487.9219067646,20582.909618924,20750.5431984933,21291.0454910976,20447.203493037,20092.9163899276,21076.4301088638,20611.7571127678,20638.4768189497,20383.4107282451,19392.7189543595,17516.298742038,20339.3634202535,18921.6268376562,21370.7554912543,20317.070161845,20928.1699384373,21027.3515285332,20671.5141052555,20936.9455181868,20636.6344353602,20634.0910112745,9922.96872050343,9812.08780639043,13007.96074498,19565.8432018037,19934.5227299828,20482.0383119017,21451.5055222173,20350.2804881565,20510.0399938015,18007.4309172121,22591.748727219,21372.4925199842,6013.72218959656,8315.76630038841,6189.22981224693,19268.3094658011,20888.0260970808,20312.0879159734,20774.2388993055,21173.9119842893,20459.7897265777,21027.0149643276,21524.1586640148,21460.1986314642
,71.5,19291.2699049934,18894.824443702,20344.6206807868,17920.5426751723,20610.638371013,19446.1429866107,18770.7860595885,20064.9997000362,20366.9191863843,20291.7424755808,20580.1089476574,20380.0036258897,17484.8110841032,21132.0876983415,20088.8746522439,20833.5422504952,19059.0433130182,20829.4141746075,20858.7259587947,20297.7434645398,21449.0951270488,20687.735831518,21032.2528696123,20042.4327669024,19025.7974798017,21785.817070189,19609.2779610825,19605.870839016,18939.1395527208,19667.880499288,19710.517369418,20034.6341020269,20133.0013080882,20303.5822788324,20871.1540197926,20168.0672237186,21072.0295544202,21081.0726165016,21162.9388571909,19860.116668759,20613.8720642339,20647.9402837054,20332.6554882196,20355.9172339481,20499.7186533864,21358.3042577262,21578.1035495359,21568.6320174334,18069.5252501192,20788.4223367652,20297.6342986941,20462.0509558429,20578.3563283259,21145.7583255407,20287.7002380419,19994.3924631065,20935.8840742542,20509.121142992,20511.3785773956,20264.0392892433,19199.1788723614,17284.8377848201,20138.9392104239,18806.2489677286,21218.5364512138,20189.8673944562,20805.5999988193,20884.1895818223,20536.0651212898,20797.8602390645,20471.818759722,20469.0010786382,9686.95661227219,9584.92543119797,12797.752873797,19445.1395162299,19784.1705076117,20346.1595091345,21264.7532511285,20205.4774309532,20359.5983835853,17890.9073989626,22437.7168546303,21226.1634469965,5787.08324962108,8063.25142340704,5949.8529299607,19126.9606270337,20721.1402363375,20145.5663981049,20608.7880471651,21018.2931081808,20303.1615097862,20889.1874429855,21373.9656470838,21306.5436277939
,72,19085.713957924,18718.9501632825,20193.5907366409,17766.9337594816,20384.8295444541,19286.1627695479,18594.8233959726,19907.8222849314,20219.617254391,20154.1476733613,20477.8171773727,20215.8718128334,17264.5912924696,20938.493351303,19915.9853704427,20647.3675746462,18878.5249008462,20647.0451741667,20670.6146274958,20130.0453289741,21258.3331023762,20522.0161679141,20847.0456788057,19850.0437659962,18814.8895822859,21554.8696662524,19393.7285123871,19539.7671013422,18768.9877028267,19487.8360523503,19576.4932336712,19914.0992908147,19983.9841663626,20169.1979652706,20716.9870799843,20035.1151255582,20854.5080584146,20856.2800220923,20939.7552927091,19675.1334521866,20399.7805224506,20457.2257965063,20196.5461123799,20186.9961960864,20330.7919493457,21199.6269948654,21408.4590718716,21396.3986726551,17887.2597479037,20579.6203762581,20082.7035053086,20332.3803198525,20384.0230117872,20973.9160082941,20112.1213896826,19885.8502200886,20771.6154526608,20377.1795540651,20358.7400126081,20124.1626921539,18983.3148349034,17037.1353203821,19916.9946047001,18667.8482193877,21041.6196315656,20035.5972307554,20657.855047717,20715.9229900858,20373.8473430586,20629.6345338662,20281.6243752369,20279.6948628135,9459.012211892,9368.21520137332,12580.9762337689,19297.0039777548,19612.5586909195,20182.0398438542,21054.3091342591,20033.891916131,20183.7273308215,17752.0686119509,22257.6646626587,21060.3608170203,5587.7921920641,7820.81738633542,5737.67686183376,18954.6563174741,20530.6391909383,19954.0172774235,20421.2283572696,20838.7858455885,20123.3547530012,20724.7970285093,21197.5393384904,21132.3900734747
,72.5,18869.5002431376,18527.4809397441,20009.5432306201,17592.1418362874,20140.5701893647,19101.2254141577,18401.2760894738,19720.7350982339,20051.7924755181,19995.7648282305,20337.819503347,20038.1322899501,17038.9409599939,20723.6625016635,19744.0809005441,20443.2283264035,18686.9605493478,20444.1710704055,20467.0463718983,19947.9997460404,21048.8062912202,20332.9673399779,20644.8869070471,19648.416943014,18597.1989716454,21306.781219308,19167.464718574,19425.6030023054,18576.9274383661,19292.342527448,19435.8458647737,19787.0469791735,19812.411967712,20012.5250382764,20543.2214268475,19889.1451793928,20613.125000631,20615.1674959651,20698.8783984593,19475.7780923346,20171.8086476767,20249.1878915323,20030.2004946971,20000.6290845138,20142.1138249839,21017.5363552249,21216.0035322134,21204.2276548837,17684.4255020957,20352.6863028173,19850.9250709459,20197.9352731192,20176.2690236325,20780.6270566086,19926.2586963795,19769.7904073786,20589.3949548059,20220.5118252827,20186.078433456,19969.7387705496,18747.6292690129,16778.9212804665,19676.9689408811,18507.0926950786,20845.3996582712,19858.9519090845,20488.8438800788,20528.7843663867,20191.7072934681,20434.6184386657,20073.6768483614,20070.0632625076,9240.19342895235,9167.32471072019,12360.8742403784,19127.7037546405,19423.6397734901,19996.573053475,20826.9941352871,19838.5705757853,19985.9664039036,17593.5893559188,22055.7186858351,20879.3384840481,5421.37891987111,7590.65910390381,5559.99611125926,18760.9629094198,20320.6937627902,19741.7518781516,20217.1525932342,20639.5077496263,19924.3820819203,20539.2514049712,21002.0956273106,20942.4269994168
,73,18646.0608860204,18326.6127386722,19800.374216731,17402.5205361883,19881.8723004587,18895.053505654,18198.6835752293,19516.934228955,19865.9833441842,19815.981696817,20165.8466583431,19846.3369480438,16807.9704983516,20493.8596030587,19578.7140987703,20227.8620617133,18489.81523615,20226.7325607212,20252.5858590649,19753.4679185767,20827.3208766321,20130.2362522499,20429.8655138022,19441.7087228443,18386.6341394686,21048.7443395073,18935.5988583809,19272.9675916583,18368.9806430754,19087.1595062993,19269.5915833838,19648.9354729731,19622.3269696649,19839.5184291949,20350.9751403106,19733.5290495722,20359.2976484115,20364.6139980374,20450.0498798226,19265.3982808922,19934.4034885029,20028.5359029209,19838.9866794299,19798.6608940696,19939.7664166787,20817.2028452558,21007.8193084365,20998.4351520957,17469.1092049499,20113.292631173,19609.0042355871,20063.0345922432,19957.3490016674,20573.8691263065,19743.1327943458,19626.6733129223,20394.4134422153,20046.9004085009,19999.1015002729,19804.7208835638,18503.2901353947,16515.3419149848,19425.1891205307,18328.7974002997,20633.6083562299,19668.1543103638,20306.2367875221,20329.5973356065,19997.0341275205,20218.881274716,19850.2539646247,19848.8043853292,9027.91546700999,8983.43387752607,12142.0663230126,18943.3135153419,19224.0683202684,19794.5337498005,20587.7333582591,19625.5766369926,19773.7962265008,17420.7933317493,21838.0668899871,20686.8631797478,5287.17903482582,7368.98834847448,5418.24714271184,18548.638182021,20096.9907514173,19515.0714146132,19999.5062507309,20425.2100298551,19712.0608600872,20337.5592947273,20792.9677426359,20740.5933932017
,73.5,18416.7455140975,18123.9197908769,19574.1131745497,17201.7791245904,19615.6133569069,18673.8701236545,17992.5327955857,19303.7801977383,19667.8607271091,19622.4773585374,19964.2803473559,19644.4557949861,16574.2761538668,20253.8542170073,19421.1469537615,20005.5850723469,18298.5430527048,19997.8040804261,20026.7916809381,19550.3357494606,20600.9420780405,19915.1315698485,20207.2298920215,19230.0384374815,18182.1850849148,20785.7199399341,18700.8353058495,19089.1453624537,18152.0104166164,18874.5919677393,19082.8922280158,19486.1462694313,19418.5782693176,19652.3922634574,20146.501387776,19573.692457428,20097.7273050523,20108.7006869487,20196.6279782703,19049.3793501709,19691.4137003488,19798.452784331,19628.6077682982,19590.1438859647,19728.25658066,20605.5655328765,20790.0920638092,20783.5892259627,17247.4304695084,19865.4821439344,19362.4978488731,19928.9216740791,19732.5207664982,20357.5037621164,19566.8486622958,19463.246133721,20191.7600984027,19863.2130369665,19804.0975786315,19634.5038922016,18250.7101650245,16250.7902667766,19164.9973903552,18138.0950712776,20410.9789465952,19467.156319237,20111.8596312301,20122.6279450205,19792.1353947334,19988.3248161844,19617.0534303618,19616.0168079032,8816.46132551138,8814.43086498196,11926.2200968752,18748.9456076163,19017.1488468269,19582.51928186,20338.0506062983,19398.7918424268,19548.1654438194,17237.5956226002,21612.106992506,20488.4674774534,5179.65693119708,7148.44110377268,5308.12328489451,18322.1548471916,19863.5419559386,19279.2375336164,19771.3972170669,20200.2989721009,19491.2069434762,20125.785287094,20573.0063738398,20534.1506326253
,74,18185.9724850174,17920.5642515896,19344.0225804868,16993.6415914731,19342.8698084161,18442.056564255,17785.4316631528,19081.9973728348,19460.6400842601,19420.1793954007,19752.0763989017,19438.0740383201,16340.2043283282,20006.0589842228,19268.7309508019,19780.4910901893,18113.3367619592,19762.5210307057,19792.5534566691,19341.037514278,20367.9401041686,19690.590665132,19978.7544635827,19016.9305087104,17984.7697586495,20520.6470836457,18465.7937650586,18880.9029662253,17927.9284136749,18658.7272863555,18876.6651573239,19303.4983301457,19209.4834891352,19454.5367862039,19933.9952119948,19408.3791944674,19832.581905435,19849.6979278009,19941.0541004408,18831.8938940182,19443.5016551827,19561.6871737375,19402.260685021,19376.011740533,19512.6112970961,20385.0236379569,20566.4908438765,20560.7351724749,17023.0188824751,19612.6310599195,19111.465894723,19796.4314667256,19504.2162329229,20134.1678087218,19398.2976033645,19282.0027955577,19983.368548134,19671.8044787642,19602.5479217631,19459.758673572,17992.4770680628,15987.2459776627,18901.2029118189,17941.6213760007,20181.5363234809,19258.5555281807,19907.596140422,19908.3621728926,19583.1325072475,19748.0450397349,19375.0288506666,19376.6170988136,8600.43988112413,8657.85796197141,11714.3047538417,18547.3416448436,18803.3488274298,19361.3134836124,20080.7803709513,19161.3611159403,19314.5896251214,17049.0082163923,21380.1638222674,20291.1296872581,5090.52317737192,6922.15298109532,5223.71638414529,18089.6019497669,19623.1779988871,19036.073670532,19534.2314892196,19965.1813419289,19264.7836271482,19905.3251334007,20343.7058057559,20321.1589271636
,74.5,17952.6468041547,17719.5749838669,19114.108716429,16779.9999629296,19065.1059986535,18200.5058946973,17577.8925822339,18853.3080277464,19246.4381638978,19210.6439164573,19534.3064962959,19228.3903914919,16104.8922528276,19754.2277751863,19117.69078221,19551.149445466,17933.2827979953,19523.4280642478,19555.5695492275,19130.8759172419,20130.9790748442,19460.0369264233,19746.1828990978,18800.9222734683,17793.6637078567,20255.7383296497,18230.6315418802,18654.9978837592,17699.7451371963,18440.9800249332,18654.3834788489,19104.1748356892,18997.7808328135,19249.6576703778,19717.399422514,19251.5995755781,19564.6507187202,19589.1821380671,19684.8082559351,18612.9347186184,19195.0169318101,19322.6997064838,19173.8747749215,19155.3480207776,19293.3325026853,20157.834197921,20337.2410268386,20332.5841153633,16797.7551565717,19357.065156982,18858.6021048023,19640.1700345053,19274.6320338688,19906.3934640147,19234.3112462093,19084.4660071327,19772.3258761363,19475.3581166415,19397.6721217545,19285.0747823635,17730.4655495437,15725.4358295662,18634.1449570556,17740.2206493004,19946.0027088682,19046.4890478689,19698.004938137,19688.8604073573,19370.0976384969,19500.2148263381,19125.8218259354,19130.9493003474,8377.21232172014,8510.89680669032,11506.9290949456,18340.3555336607,18585.3049701933,19135.4332105615,19818.0722156118,18916.0768852729,19074.2939648449,16853.8550944841,21142.4379904154,20105.2241618415,5012.12125775413,6685.74813688398,5158.22626486701,17857.1394863019,19377.1704923721,18787.4328748564,19292.6706865661,19725.0576559268,19036.1345613652,19680.3561442335,20110.383210571,20104.8467994096
,75,17717.3480234877,17523.6435499382,18882.9126223721,16561.9121781854,18783.1322563969,17955.1075045501,17368.3029797197,18620.8569461776,19028.4548683188,18993.0625565279,19311.6581984418,19015.3150846447,15867.4389469509,19501.4489326242,18945.2377412005,19320.7560127447,17755.3119873641,19282.9706494955,19314.2455264182,18918.0495132481,19891.711508712,19226.5635540948,19512.0590959024,18583.2817681278,17604.2960734034,19991.9432475532,17995.5474490274,18428.1446069041,17467.9322697135,18224.4746057769,18418.4570223034,18889.4110786528,18782.1841486109,19040.4132132818,19495.9867304376,19100.4210498564,19299.3290884355,19329.4296738727,19430.6826304185,18390.9918685123,18945.8302941387,19081.6622144523,18943.8056230539,18931.7581824684,19072.3371114528,19926.2807490354,20104.7314485033,20104.3807594457,16573.8951752496,19100.0452672435,18604.248581568,19463.8132687086,19042.2448033653,19678.0950189391,19075.2519093795,18874.4694539906,19560.9676002698,19276.5604805896,19191.0065905635,19113.2588132792,17469.2751133389,15466.6502986855,18368.5733542774,17537.4972238566,19707.400796161,18833.4681634957,19482.4155428597,19466.5090608116,19155.0086855758,19246.0858421472,18870.468923741,18882.2295094365,8147.775218388,8370.26279456899,11304.1745544126,18128.9155050683,18363.9670645917,18904.7861247107,19552.4666378159,18666.3520754736,18829.9106316545,16656.6441510826,20902.3425472851,19932.8414796407,4939.00000194332,6439.93190544319,5105.40084143367,17619.991316241,19127.8668428103,18537.0233312036,19044.0614193224,19480.2774499054,18804.7451939131,19452.3448552133,19874.7603005688,19886.1902590288
,75.5,17481.2399120821,17339.2175971066,18652.3232391508,16340.8705880319,18500.1834705153,17709.1701133607,17158.1304417665,18388.2215097539,18810.6830672267,18774.695994769,19086.6381537491,18803.3838565363,15630.1579351104,19249.2132738252,18751.515775293,19087.8524268496,17577.2390883663,19042.5759967554,19072.422083489,18704.4322134256,19651.5819641691,18990.6962953651,19278.974291786,18365.1272188436,17396.0241102438,19728.8116162617,17761.6926657736,18200.9557299036,17232.4666035821,18008.8435438277,18181.7530861167,18663.3030365565,18565.2719136852,18827.5682686663,19273.9599660889,18954.7077484254,19035.8458826809,19070.6490378458,19177.6778449511,18166.8740589165,18696.0370691555,18841.6011606568,18712.5181741597,18709.6472221339,18851.4253785409,19694.2477897398,19873.7644671781,19875.2163474888,16348.3772373558,18842.0414830504,18350.1083742596,19268.200544614,18809.3096889514,19447.5202386016,18904.7885072504,18664.5230606248,19347.7750351035,19075.2241142019,18984.8224560523,18953.1457376838,17207.7526772158,15210.9845251539,18104.6411967662,17334.393412028,19470.1866600301,18619.2575668647,19260.990283311,19240.3274007725,18935.2454035086,18989.0113746171,18614.3044120433,18629.8462296948,7918.13943032374,8235.70856925334,11105.0239755356,17913.9332825684,18139.0148155579,18673.038175047,19284.3491373369,18414.0611917844,18581.2926629212,16458.2098659923,20661.61242269,19776.1337900924,4868.25043015274,6192.01914893157,5060.47607455431,17382.5185860284,18875.8952064994,18285.1159284284,18792.6479710883,19233.7587278702,18572.0463260389,19224.2052207474,19638.8284026827,19668.5133415576
,76,17245.426663805,17166.0681175327,18419.3808754358,16117.9823612743,18213.9927222871,17463.0765403791,16943.9432841884,18153.0514365129,18589.5569044083,18554.9519960792,18863.7583308008,18591.0815708278,15391.8837971992,18997.110158834,18540.7387636984,18854.5634423564,17376.2067309462,18802.3523846174,18831.0788125345,18495.087616235,19408.8230036905,18755.6756868217,19045.2083904002,18148.612248106,17171.1943517577,19466.6420092577,17529.9534438557,17973.6957469065,16993.7480738796,17804.3810141315,17943.2425801756,18438.5405417461,18347.988895192,18614.5505525169,19051.1522819632,18812.6150119755,18775.8131039971,18812.8399864002,18925.7654542627,17941.3932305579,18447.3173456837,18601.4070561614,18480.3385004467,18484.6991406203,18631.4321776244,19460.5281293957,19641.5943286192,19646.9605507124,16123.6306945232,18586.406223955,18094.75709356,19055.788033746,18575.2078740101,19216.07505702,18716.274133411,18453.5053309014,19132.932451066,18870.7991922491,18779.7029561543,18800.1572191805,16948.2313559944,14957.1400483316,17843.0215404747,17131.4990630376,19233.8845219861,18405.6992972518,19036.6481746038,19009.5801944815,18713.7901298458,18731.5776845687,18356.5925442854,18375.091767752,7696.12257671133,8105.9884953482,10909.8703681826,17696.2552400727,17911.4007139026,18438.842834619,19016.6263888733,18161.7702109025,18332.6145785066,16259.255374565,20419.1520349999,19632.5992369035,4799.76891887094,5953.91375104067,5021.44662792952,17146.2437256894,18623.7481787798,18032.0278548553,18540.4769165531,18984.7182892872,18339.5843184103,18994.0341653024,19402.2626131399,19450.0157922813
,76.5,17007.6662650992,16999.2272813293,18189.5301964198,15894.7199887388,17925.5392331,17216.3988085862,16729.0485158419,17917.0706316087,18369.0229225236,18334.6842260034,18640.7634087133,18377.3835215456,15151.2129679692,18746.865482817,18316.6005139843,18619.2635062125,17153.6028576636,18563.7230890457,18590.6255956989,18290.2126645082,19168.3278913111,18520.6688396867,18811.0261770424,17931.4836517145,16930.9390207832,19205.4835898243,17299.1851899799,17746.3452718473,16750.9137858944,17607.7698731798,17705.6569042919,18212.5881441813,18128.9457618916,18401.1043355332,18826.6757542954,18670.1816817046,18515.6387767498,18556.6135567334,18674.9332450426,17713.1614632941,18198.9409471487,18361.4131137473,18245.556158339,18258.0026003785,18410.4774032801,19226.9750081108,19407.5946919078,19419.287830509,15900.1048351399,18332.0370511595,17841.4012677679,18826.9850841416,18339.6562855192,18983.2878849326,18511.1160985181,18241.4854197436,18917.1175419441,18664.4923934921,18573.6638038617,18655.5566737445,16691.4599014157,14705.0638929456,17583.1496628157,16928.9742797126,18996.3306868157,18190.320378274,18809.6223711354,18778.228408051,18490.1210860796,18472.5008278502,18098.5756651414,18119.8019113604,7491.14585601166,7980.379499048,10717.745882345,17475.6260624751,17683.6996755642,18202.2921828663,18749.4525801832,17910.9388303602,18082.5224971789,16057.4703544395,20175.8040310049,19492.6763429326,4735.37883437938,5737.68624812824,4985.74718905285,16911.2470295468,18371.90727499,17778.3938755186,18286.4747108498,18736.4804599783,18107.1595343946,18763.6560744665,19167.259929225,19234.4207988682
,77,16770.3923146126,16837.1746124866,17959.4177075009,15672.8439593063,17639.0145026718,16972.5671031728,16513.3547938631,17680.881630878,18149.5725002807,18112.6415840301,18417.3881653536,18162.9076883469,14910.3888751537,18497.3025982208,18081.2019633509,18384.3892670636,16910.7647855317,18324.9645546423,18348.7729290855,18098.138844554,18928.6897362902,18285.9740854493,18576.2398580844,17713.5355400827,16676.736925839,18946.4861944608,17070.0529061788,17518.8725528477,16504.467525471,17418.1237505208,17468.3614893239,17985.3702872971,17909.6369541307,18186.1408058915,18601.1531233297,18508.0257376915,18257.5831135634,18302.8623752326,18426.533806833,17484.4840536758,17948.4813679468,18121.1607803176,18008.1139853513,18032.3212817587,18187.995280346,18994.0223634189,19173.8189499345,19193.0425564175,15677.8815968183,18079.5569174677,17589.5398696177,18597.701084457,18102.896763468,18750.1652135625,18292.8055227281,18028.6107937536,18699.164890648,18457.0392404449,18366.3241828527,18515.7097915581,16437.9802603613,14455.5395879796,17326.8562261662,16726.4967592209,18758.7364062494,17974.023821606,18579.2532980227,18545.9691742879,18265.2096544738,18213.5791942779,17841.2342970568,17864.8865799359,7308.99586278616,7858.37120022036,10528.756430604,17252.5369151932,17453.9708863214,17962.7102218527,18483.3181060923,17661.100590132,17833.4501896339,15856.7348778277,19932.8160371002,19333.1738807912,4677.0131349774,5552.55759650855,4952.13997659053,16674.6643631807,18119.3470072677,17524.347559128,18028.308896668,18486.0730952074,17873.6003876283,18533.7449692704,18933.351289689,19019.9853417119
,77.5,16533.5591783191,16677.9523491178,17731.0508373336,15453.5566835337,17353.8380837174,16730.5806387354,16296.4166814903,17443.2623768652,17930.4652757855,17893.0052467751,18194.3703109746,17947.5499966317,14668.7358003122,18248.0343934714,17848.7032753984,18150.4828831065,16649.6197765057,18083.6440401463,18108.9416054452,17917.527957613,18689.1322503047,18052.6542206282,18343.3333215397,17495.9560073597,16413.6951048099,18689.5620578487,16843.2784482062,17291.0281486921,16254.4141992031,17231.5340683306,17231.1422015048,17756.9564953564,17689.6221609853,17970.0019126785,18375.5462783749,18328.7838538474,18001.4558379823,18051.1169770199,18179.02727663,17254.4504546603,17698.8473311643,17880.0323773601,17768.9048753088,17805.4339659525,17964.9139064234,18761.6025535307,18942.2906371084,18965.4172214004,15457.5158300162,17828.9381134361,17340.4327579381,18366.5026034313,17864.6679825374,18514.7581019348,18060.2691604714,17813.5077195927,18478.7522547493,18247.2325025398,18156.3373448835,18375.1928348534,16186.5711013218,14208.3252433682,17071.2118008554,16522.7032428161,18520.14286844,17754.0505762747,18347.0084238385,18311.6446926934,18036.4786685917,17958.4332744827,17586.8022170368,17612.4441818063,7154.0948146146,7740.27814397948,10342.5706481988,17027.1564342105,17221.895327007,17721.9693832729,18217.4256543092,17414.2463527044,17585.88015154,15654.2670135328,19689.4321818646,19153.0757592927,4626.87245227488,5403.38308591858,4920.03355571324,16439.3604112594,17867.5944244531,17267.9843741455,17768.2072314253,18235.0903364625,17640.8176637259,18303.4187624432,18698.8582743356,18809.2082284029
,78,16297.9054405903,16505.1134928564,17505.7732508556,15236.6784976042,17072.2836748268,16490.6370907826,16076.956593313,17204.1187216196,17710.3642064625,17671.2826789412,17972.5129308924,17728.8179431821,14425.7425778845,18000.6220212373,17619.5475854704,17917.1727882913,16369.4957610776,17840.2809636067,17868.4964612795,17749.041408627,18448.3954118502,17819.3215845414,18109.8761547459,17277.3168465023,16152.5388251729,18434.8781458178,16618.8074796264,17062.8223863966,16000.806778799,17046.541470809,16993.8644708959,17529.2176541815,17469.7192551863,17752.5525688959,18149.8793033676,18134.899212847,17745.0458798315,17799.9295964379,17933.0083777461,17024.7919181194,17449.7068073486,17636.7263208802,17527.9887448046,17576.0442067051,17741.147414019,18528.3038876249,18707.860163481,18736.2411431243,15240.741247957,17581.6902016489,17091.9811402417,18135.27666383,17626.3091906568,18278.3424727004,17822.8543138112,17595.9031779223,18258.5241331256,18035.5703351373,17942.3796150456,18215.7640433693,15937.585823942,13963.712954425,16818.4263513182,16317.9089549887,18278.7209263083,17534.2266401057,18113.8116914218,18078.0373933296,17807.7987014362,17704.84617303,17333.9598278387,17362.3727466816,7026.27488838393,7624.74116130582,10159.5994421725,16799.9679779943,16988.0252593473,17477.6675592552,17953.5500668427,17169.1570950472,17339.9632042424,15449.7661199109,19446.2928004309,18952.8027126263,4586.31164457339,5288.4304119094,4888.81637869987,16204.0191577427,17616.4669945034,17011.9220164117,17505.2823734575,17981.5552662813,17407.7264773363,18071.6652615854,18463.4119971862,18600.2172795734
,78.5,16062.7077349705,16317.4920663561,17284.9968675718,15023.0324569729,16793.8742023091,16253.0084502995,15858.3649745751,16964.6684205195,17492.7750512962,17447.3175810807,17748.9436683302,17507.0684499296,14181.7446897556,17755.0013659183,17391.7799787299,17682.7632271968,16082.1320195536,17596.3555273915,17628.4787992827,17586.4536894771,18208.9117149115,17585.6484320265,17875.1719410312,17055.4099731732,15892.4618231199,18182.0788424448,16396.4630908381,16835.2114639163,15742.194383448,16842.163037652,16755.3604633649,17299.5264099417,17249.424883708,17534.0808269384,17922.8873175828,17926.7010539624,17487.7607782124,17550.2265204188,17688.439717432,16793.4705669792,17197.6863254161,17392.2243616391,17284.391220479,17346.1021621138,17514.5233788854,18295.4164414508,18472.2919572019,18504.9632656791,15025.391788034,17334.1827981806,16847.2217165672,17902.9730445763,17386.5043352375,18040.0913267548,17585.0622469829,17375.9666724578,18037.1621320631,17821.9643519671,17723.1827124126,18040.712488749,15691.1536298385,13722.0282198834,16567.730194605,16111.7781870741,18034.2033922879,17311.5095933619,17878.3293616306,17843.4051718846,17576.6347602056,17452.6726218082,17083.862645014,17116.1728473132,6921.53103942939,7512.1054032503,9979.37029705539,16569.6401853336,16751.4919645951,17229.7056179502,17689.6697266691,16924.1652968453,17095.8260762129,15244.3457420874,19202.8950905613,18734.4593744316,4555.18340896004,5201.53463531167,4857.75019418824,15967.2414690596,17363.953202435,16755.2483133271,17237.8545730983,17725.5281197804,17174.3561155487,17839.7675046519,18227.2523273223,18393.714634676
,79,15831.0264469386,16120.2762222495,17064.9754947085,14811.9212697196,16519.5116598476,16019.2026167341,15637.7675555112,16726.2766992514,17275.4764141419,17223.1388301694,17526.3841133023,17284.9574694069,13937.1855210868,17511.2786899766,17165.2897328434,17448.3647251009,15786.3218832341,17349.6876646762,17388.4410545881,17426.3676421284,17968.5200768904,17350.6020598321,17640.2013895748,16831.8331079376,15633.4658753893,17931.3520616135,16175.8683212229,16608.3918249072,15478.3776547677,16620.210895306,16513.8970260929,17068.3425212765,17027.9026231822,17314.4054954622,17694.5004527696,17708.1440752729,17232.157123147,17302.7043814904,17445.4598152112,16562.1749882798,16942.8728755688,17145.5687948157,17039.7740162028,17114.6036216578,17285.9670407452,18062.532491067,18236.5060200549,18272.2488277882,14813.3649696603,17090.0602157664,16603.1698259236,17670.2996150514,17144.226771839,17800.6905883618,17344.3437627851,17153.6535659974,17813.3191069676,17606.2103991088,17501.2568716757,17848.2492394908,15446.805895452,13484.0784283633,16319.0942088296,15902.10646151,17788.0387645956,17088.0068810597,17640.0280423402,17603.9229734258,17341.136703236,17203.4075972317,16836.8520229798,16871.7489084098,6833.10727799831,7401.71522297012,9803.39857942307,16336.4828477857,16509.0050885814,16977.8427510724,17425.8016256715,16679.0526705618,16852.8456528984,15038.8417615977,18958.7318236221,18502.609863454,4531.96752566624,5134.01210796587,4827.71944606079,15728.3032575796,17109.9294285538,16497.7962989771,16966.5606340053,17465.7295062208,16940.1875703727,17608.578656997,17989.606131467,18188.6335913099
,79.5,15602.5908314585,15913.3946988623,16847.3263211665,14601.9472894458,16245.3850807379,15786.6868852508,15414.5831024315,16486.9326348425,17057.1253050452,16999.2477827346,17304.4751276205,17061.7301554753,13690.3638213586,17268.7405876523,16940.5582768639,17210.7489062479,15481.3517885238,17101.672190846,17147.5471617869,17245.8288261791,17726.9010803845,17114.0371169855,17403.1384469512,16606.5762906121,15375.354180573,17681.2699670847,15957.4914637578,16381.1217583414,15208.2676365937,16380.9068737633,16266.0310999039,16832.8175940308,16802.1728442571,17092.6475573711,17461.4392835098,17488.2048223753,16978.6587170783,17056.1483328038,17203.4137908327,16327.8956139833,16684.6166957675,16895.1618341658,16793.0705308189,16877.8919960234,17055.155672255,17828.8904849596,18001.9464894217,18036.6326718789,14603.2132166528,16847.0644154522,16361.832739281,17435.3944523118,16897.3928202364,17557.7528758878,17097.4371965373,16928.0706323381,17585.8753728824,17386.4061027216,17275.0878916717,17640.4012994708,15204.3319955709,13249.2001707303,16070.2386207343,15690.4188293961,17538.156142895,16862.6140320294,17395.1615911699,17359.0903984409,17100.0285271037,16955.4424458007,16592.4072640409,16627.9566717296,6756.17391038618,7293.69729144221,9630.5889143474,16099.7143159021,16260.4381793904,16720.5789050206,17161.2312895266,16434.3464257486,16609.0761103583,14829.7943806185,18714.4050568753,18267.8376518732,4515.14384020246,5077.74887339097,4798.87177509081,15489.0842233453,16856.471204632,16239.5296953716,16691.2059536782,17202.3914119187,16705.4251697262,17376.195204123,17749.7649977963,17986.2316937271
,80,15384.8989813551,15699.2156238184,16631.9150014294,14391.3860775589,15972.6789725603,15553.2083520435,15190.3296790422,16247.9186019062,16837.1300662596,16772.8920667504,17080.4261636831,16837.0979146777,13440.3026528155,17027.7119215744,16717.1960803276,16969.7080017725,15165.1428242222,16853.4201561214,16903.2513398208,17048.8119620806,17485.427179514,16875.5889709735,17159.0644792084,16377.1605499636,15117.0946589282,17431.7339262664,15741.3457485964,16153.3339413509,14929.2800968384,16125.7127136859,16009.7163099616,16592.538497132,16573.7192117056,16868.2520395976,17223.3503481452,17264.9651143885,16725.6847197272,16809.7665067555,16964.2417448232,16092.2660865056,16418.4697635674,16639.350319126,16540.8695962492,16635.2564585825,16819.5584009834,17596.4635821198,17764.181454296,17799.7925326175,14394.6435345421,16605.1690987508,16121.7813456642,17197.5174275482,16645.6002717705,17310.6158333366,16843.6753840113,16697.2012465633,17353.7309417281,17163.9560230984,17045.7282163146,17419.5448753383,14963.9272281105,13017.2844379072,15824.0899226346,15477.2404337807,17281.7306593055,16635.1679989798,17144.3189436866,17108.2188196889,16854.1822375191,16706.5014737982,16348.1436727348,16384.0308196734,6683.68340861433,7187.79696493605,9461.35133180261,15856.6974011569,16004.4085494969,16454.0185943879,16895.767304555,16187.3683878222,16363.4799599387,14618.2784461796,18469.7634320164,18032.486683772,4502.52153699907,5025.70761157122,4771.07317685779,15249.7292346031,16600.6539152024,15981.1345880435,16411.7500715531,16936.0086503556,16470.0423235404,17143.2383552587,17509.6304889853,17784.6879471432
,80.5,15173.6575311468,15485.7615416147,16413.8048448288,14180.5978577833,15698.0070949801,15318.7771059208,14964.760025533,16006.483489369,16615.7863427332,16544.5231836217,16853.8564438862,16612.8318820268,13185.6698828074,16786.9984663424,16495.1817627008,16725.9722138753,14836.0523380748,16602.1022878286,16656.4528568374,16833.0818561328,17245.0634870931,16634.4196824096,16909.998483225,16143.5568835988,14858.0258354943,17183.0146769263,15526.2755883953,15923.7786928974,14639.2972557669,15854.0834848551,15740.8341690827,16345.7568151144,16339.2996197755,16640.4065052285,16976.7712706751,17036.1677510222,16475.471035024,16566.0817171684,16726.0908207823,15852.270903532,16141.1048876122,16374.8624196116,16279.3734874399,16384.235177871,16575.5244539309,17364.5587691815,17528.3735753267,17562.4644597556,14187.5321702016,16363.5914570577,15885.7451845392,16953.7862798914,16383.5266649311,17057.3360982441,16580.8671433631,16461.5868441153,17115.2008331296,16937.5873109102,16812.125324426,17194.0350159416,14726.3575275812,12787.6429598852,15577.6089017888,15260.1190905868,17015.5108328397,16400.8491894505,16884.8633568566,16847.7853833827,16599.2220575339,16457.6201478516,16104.3447882475,16138.4092104422,6610.28527525027,7084.1462070347,9295.54052938612,15604.2924276681,15736.701671548,16175.9950055437,16627.6454973624,15938.9244610769,16116.5699700129,14405.3359463334,18223.7226086013,17794.8371570699,4492.39133370524,4973.9258273604,4744.79176140245,15009.0919917755,16341.8889260782,15720.0218550321,16126.4448481147,16668.295508722,16233.4842820957,16909.2917509818,17268.6595465514,17586.0565262541
,81,14967.1067499307,15274.0317774122,16196.2796242092,13968.2819252625,15422.7716137065,15083.5780924898,14733.7218312015,15761.2771293357,16391.5793351979,16315.9516212133,16624.9199301871,16387.6459464703,12924.4278669252,16547.955461515,16275.0557327523,16479.7749187136,14489.1376458992,16345.5011385638,16406.5904666038,16601.3567586491,17003.2915035428,16388.7368995254,16656.2584857982,15904.8202005812,14599.0360483376,16935.8541056775,15312.2602192469,15692.2192035527,14333.8505255178,15574.4623750627,15455.825948828,16089.6685171019,16098.9987285614,16407.1061896418,16720.79309064,16801.0098407387,16226.8008157436,16324.5172527271,16489.4227980892,15607.7314955446,15849.8233435072,16097.2769301954,16006.0048169262,16120.5910030779,16323.4972774396,17132.2163284684,17291.7365733638,17322.8574423536,13982.6647183103,16123.9944718795,15650.533880147,16703.0849111748,16108.0856242826,16795.9166771565,16304.0903363405,16219.0630554816,16869.6659461466,16706.4462840273,16574.3915984741,16961.6339397692,14490.4710200936,12561.4167898213,15333.2692501192,15037.50769963,16738.3654236622,16160.8183946021,16615.4471004509,16579.968053082,16334.528962965,16207.2601850444,15858.7397695461,15889.4552324746,6535.18464425664,6982.88372983749,9132.67274980043,15341.1691625836,15453.8630236704,15881.8148283293,16357.8014564156,15689.6806907518,15865.8781238262,14187.7281120309,17976.2181766986,17553.3633999828,4483.69636638758,4920.37191266777,4719.91279600223,14768.118579043,16083.425866284,15457.5723398582,15832.3010145011,16397.4447205052,15993.1978620127,16675.152561708,17026.2611905596,17391.2664491867
,81.5,14757.3092975793,15064.4806188091,15980.4526774733,13753.7690929851,15145.5994504606,14845.002944891,14495.6394833571,15508.1020821359,16166.5010327079,16084.6970668398,16391.6143537146,16157.8658749416,12653.4354473105,16309.237074397,16057.3586524096,16229.3338108037,14115.1528989426,16082.085506053,16149.9909292714,16355.9633701592,16758.9957147014,16139.6362109261,16397.2106547249,15659.5053281745,14339.3957493801,16689.8241922905,15100.6821152352,15457.877473077,14008.2620018307,15284.1870163885,15146.642834012,15819.621672644,15850.9165536885,16166.4925107552,16452.8284868707,16556.1995772664,15979.5879541747,16084.2469014855,16255.055855525,15354.4689040773,15538.2436818886,15801.3093480689,15715.099690124,15840.9279227537,16058.7691202634,16898.7365649056,17052.3329105613,17081.9604598583,13777.5784227421,15883.3951362359,15418.4416864955,16442.8787238663,15815.9803688166,16522.230746092,16013.089319195,15967.1042738808,16617.3998702528,16468.6246702403,16329.9371688307,16723.0196595437,14257.3048983874,12337.6624559274,15090.7287601754,14808.7131701216,16445.7259994808,15910.0405083657,16335.717407187,16305.6497411175,16060.6497253688,15954.055897914,15609.4905675397,15637.1361870609,6458.53368535735,6883.94013109395,8972.36168347215,15063.7548155073,15152.2346329287,15565.9583956141,16084.9908173009,15438.1247182621,15612.0820291879,13962.6075062432,17727.6039595236,17307.4094398625,4475.54417960224,4866.41857493813,4695.94601777687,14527.7005640863,15824.1699559488,15193.5648624031,15525.5191978702,16121.3753814337,15749.6140167284,16439.0571013693,16783.4645680077,17212.5312776607
,82,14538.6816214016,14859.1998110837,15765.9525381894,13536.9186990914,14867.151420838,14603.2982502091,14248.3050557768,15248.1207610753,15939.6971365498,15850.645281819,16154.1232291725,15926.3910542117,12369.2880600715,16072.663972949,15842.2394605341,15975.356231754,13700.1842588218,15809.5141702568,15886.4140198795,16107.2328665501,16511.8790025493,15885.6838350481,16133.2488723465,15410.1172530344,14079.4945253669,16445.9836789866,14891.1739912496,15220.6312204889,13658.0198048958,14981.2410132324,14807.4415608503,15535.2637199,15594.525388752,15918.2641641113,16172.6183114392,16300.5233208487,15732.9773167185,15846.0134234587,16022.4741871329,15090.6776165506,15198.1147483145,15479.2150682215,15402.8797194546,15541.5915349676,15780.6815343046,16663.1938018913,16807.6480703004,16840.1912343654,13574.2709314277,15645.4613771043,15187.7611268083,16171.7818236549,15504.7473878022,16235.0445507371,15708.4716164952,15705.3239940429,16357.5963625286,16225.6784285604,16079.2241434528,16476.1609403562,14027.0541744666,12116.4909759812,14851.2676998384,14569.4395384027,16132.0662514335,15646.1068763111,16048.9720073658,16024.5854233411,15779.5839766571,15697.7439319908,15355.7968770623,15381.8153222024,6380.29524347003,6786.74094286222,8814.36115153435,14768.7739930467,14827.9082145333,15222.9727929418,15807.7276811554,15183.322037519,15354.4200317593,13730.4383987117,17476.2451522307,17058.1479285056,4467.62496757369,4814.30369740191,4672.74149635006,14288.5865179408,15563.9556502941,14929.4525552434,15201.6312913546,15837.6206524761,15502.9132151966,16201.6304392504,16539.0455038028,17046.0661138312
,82.5,14290.4641948462,14655.8084348289,15553.2462973757,13317.7890677758,14585.3908882943,14360.2199425452,13988.3175609449,14975.2930283605,15708.6211214388,15614.6799948049,15914.8202986938,15694.1075659156,12068.8655953539,15837.6112741766,15628.9861408537,15715.4220585276,13228.0041556095,15524.0983914005,15614.7216034608,15852.4377472381,16260.4273001825,15625.3810861256,15866.0681713391,15155.4482707103,13817.8615358742,16204.4755769218,14682.9531089134,14979.7508891151,13278.6818571114,14663.5909826533,14435.0259518584,15236.2865491588,15328.2434180956,15662.373688797,15880.246061973,16034.4079682792,15488.0140551616,15611.195912526,15790.8188447535,14813.4321479708,14824.4382432919,15126.5766285123,15069.2962759905,15221.6774323653,15487.2944986748,16423.7054913902,16560.3774200997,16593.802123347,13372.4636135063,15409.5913345981,14958.9315209485,15889.2631878764,15172.0140929074,15935.0784150862,15390.871386193,15434.7787726147,16090.3501097148,15975.3533609852,15821.4131832918,16221.4133147013,13798.8618936623,11897.4002909768,14612.9708524757,14317.9612627251,15796.2549981234,15368.3951243395,15753.3594938031,15737.5078019355,15492.2903618806,15437.4110427144,15095.7919632336,15120.1446969298,6302.23797231433,6691.94596627064,8659.29670376231,14456.5574204601,14479.3468506997,14853.4556460978,15524.979165924,14923.8424834122,15092.4231740183,13487.8940511301,17221.1158110378,16804.2237979522,4459.990357043,4766.37270333247,4650.40649177995,14049.8248931314,15303.757161244,14663.8569946334,14854.1550634385,15542.0094629278,15250.8795374325,15963.3714878213,16290.9110433823,16889.0878644962
,83,14012.403566273,14455.1347997106,15346.4446012209,13096.2210620863,14298.9757902034,14113.990124097,13713.3722585639,14691.3021619166,15473.8881250898,15379.3422943805,15670.463355803,15459.8055262667,11747.6033818515,15604.3323328066,15418.2117708833,15449.4285038284,12684.0045477849,15226.6853812992,15334.2554308464,15593.5035457744,16004.5981009796,15360.3807665613,15591.8430912384,14896.6469169254,13554.0322848931,15965.0653004357,14477.4127191322,14737.0260120052,12868.8059637889,14330.8642220485,14032.596164338,14922.5791503495,15054.2806767019,15399.6933502421,15578.2608026043,15758.7968906879,15244.0012079961,15378.1683069232,15561.8483039005,14523.2949517917,14418.1493334243,14745.9903804957,14716.8196265617,14883.4823572166,15181.8809325592,16179.2298549232,16306.5667849639,16344.5903094551,13172.4686791576,15175.6904083077,14729.5793837432,15597.6219821973,14822.4916734195,15623.4324133319,15059.7305630558,15154.9096509271,15814.8365213107,15718.4092611653,15557.0359917929,15959.9552054076,13570.861428351,11681.4786146538,14377.2566458467,14056.2412082016,15441.513171279,15078.5336173879,15450.5500631671,15444.2415419689,15199.3057235999,15172.2944951627,14828.5655515031,14851.8313726526,6225.85282813371,6599.58444529307,8506.73768576613,14128.5324452857,14110.9588361386,14459.4171062063,15235.6863037775,14658.5782470336,14824.0182546864,13232.8446616884,16961.3883929808,16546.9055062289,4452.26981717581,4724.8353571515,4628.68936768427,13812.8526931241,15044.9629898443,14398.1426040827,14477.7396167003,15229.8325190149,14993.76229409,15724.9144389628,16039.4307681528,16737.978820233
,83.5,13702.8350813025,14257.4504998597,15141.7413214145,12871.1816184627,14004.5661109927,13861.0488637954,13424.3217584807,14396.8732668705,15235.3576141415,15143.37317655,15423.3990746037,15226.3895791732,11401.2325702556,15371.6096918469,15209.660274993,15176.5449871774,12061.1657683441,14918.2507240985,15043.3309321746,15329.4756922791,15744.9018423995,15086.4265009676,15308.9863121216,14632.6504704645,13283.9054396775,15726.7265731522,14274.4755249466,14491.1501535686,12432.9108501872,13986.0408137058,13603.486086244,14593.8755040496,14768.2284059824,15128.5422583836,15264.8280635857,15471.7548368485,15001.7376129772,15145.9655090894,15334.7253434503,14220.2968418939,13984.8121459884,14341.3950621104,14346.1442592113,14527.838685953,14861.6369814268,15931.1057173139,16049.5679489604,16092.5334250312,12973.6174315059,14943.0950235164,14502.3222586673,15297.4498137373,14458.8478244665,15300.7180431045,14718.926277944,14864.6905747651,15529.7620091159,15453.4119293422,15284.4596775253,15690.9969497888,13343.9664601402,11466.6557202308,14141.7927143366,13783.1551052957,15067.9050830276,14774.0424480605,15137.2591024406,15140.5999881544,14898.6717446399,14900.1331153195,14552.2616428573,14576.4527220165,6151.08675574337,6508.90694738692,8357.1766932608,13784.5646206153,13725.5260086399,14045.5457101804,14936.2614392557,14384.2133866045,14549.0562563909,12967.9693789017,16698.4571751022,16287.2185195822,4444.4887510383,4690.83363079681,4607.7252399817,13574.7589299026,14784.337618743,14130.8378052044,14075.3913347596,14905.2985866473,14735.0209111361,15485.6366852798,15787.0309971158,16587.122438135
,84,13364.1978548078,14060.5007482465,14940.2369602892,12639.4006459203,13698.3404517591,13600.012910071,13126.4505129532,14094.9290805173,14991.5997557307,14907.5878722093,15174.7907580195,14995.4378501547,11025.3820708079,15139.6328574408,15002.3174163636,14899.4583026339,11372.99558341,14602.0096780774,14740.9214994849,15055.7709919129,15477.1736238134,14802.8331473282,15014.2247348228,14364.828368952,13005.7309178127,15488.3903068835,14072.8562824965,14240.320493627,11973.2643537914,13628.7920982009,13146.896928107,14247.0901685924,14466.1541537417,14846.1326924198,14937.0802872083,15174.3393556036,14760.6330697887,14914.3590488083,15107.7861548194,13903.2468472577,13526.2098447621,13913.3765241869,13955.749202245,14151.7876451869,14524.4148230745,15679.1128527777,15790.1615882305,15837.7367623305,12775.9697900668,14711.6621168771,14275.7145419242,14987.676142245,14082.5816998242,14968.0198066468,14363.9565688662,14564.561434647,15232.7186497223,15179.974200908,15000.9747800127,15411.8222423373,13116.8307655603,11253.5220823213,13905.8038940923,13495.5019794405,14671.1481836884,14453.3416358633,14811.799190726,14824.4040950652,14588.3896550354,14618.642105522,14264.7141442806,14290.3086332068,6077.86828506556,6419.90296397359,8209.8473782686,13420.5818482864,13321.4893800475,13610.7666147725,14622.4872194965,14098.3799012511,14263.3492318062,12698.8133165256,16431.7959524901,16026.16621194,4436.75289585636,4663.24468411291,4587.44012779134,13330.8410353957,14520.1094817257,13858.8519334528,13654.6195337527,14572.1844413546,14473.9990423827,15245.7835030322,15531.0405613505,16409.6876133903
,84.5,12997.5883027806,13862.5340647447,14741.3882171147,12397.2516682769,13374.4418487404,13326.5137417989,12824.5640324418,13788.1474695729,14744.2460405567,14670.1257398402,14923.7646931186,14766.2623796151,10621.8004876148,14906.4281019178,14795.3564163139,14620.841334009,10647.954817753,14280.8052602876,14422.2260723533,14769.9667895505,15198.4639062081,14509.275381969,14705.9275077346,14087.7931433939,12716.5796692877,15248.3816142384,13872.2032893326,13983.1961698194,11483.7521900444,13254.6446350205,12654.1829841655,13874.8648104549,14144.4821410692,14550.8796098959,14588.0933027436,14861.5378247445,14518.8717791496,14681.8603871158,14881.1207770594,13567.3035799829,13039.4919261108,13458.2066153795,13537.0781368206,13748.6963229147,14162.515261247,15425.0660204549,15529.8198365022,15580.499038916,12577.5302224535,14478.6941168891,14048.7792082074,14665.1681803719,13689.2841393171,14621.1478296737,13993.8813936168,14252.0208130842,14924.8175884955,14894.240930305,14704.2699615926,15120.6124206369,12887.2881250079,11040.8158582446,13668.4829280861,13190.9629916867,14246.8863508118,14110.117840177,14470.2137612512,14495.1463151878,14264.4810572141,14320.7711822943,13960.9757120057,13988.7377926965,6005.80079941638,6332.88542334298,8064.57242885389,13027.2411951507,12889.5075073282,13147.8786747292,14290.0046043795,13797.1823752106,13965.4393133615,12428.6369575471,16161.8717030646,15764.2090111498,4428.99253194821,4640.18575488761,4567.80663152708,13075.1340054047,14244.6048097493,13574.3490622057,13223.6710296792,14235.8127245258,14211.6182371143,15004.5712890544,15272.4108365378,16208.6105833482
,85,12612.4410444262,13664.1682571157,14542.480881432,12136.1566541116,13023.9384182437,13030.6784534501,12522.3558848629,13483.7700741306,14497.0629716132,14428.2235135094,14668.4710725641,14538.0672096616,10183.4949618252,14671.1458765354,14587.4130007318,14342.0558277705,9910.23612198487,13958.655065731,14085.6218998428,14470.8216656649,14907.6540749854,14205.1481051398,14382.7059688516,13803.753384592,12415.8071751648,15004.2487762977,13671.8632784892,13717.4773837434,10961.5218245458,12859.2582017978,12117.5850470781,13472.5285339459,13802.4962385682,14235.529257191,14205.3784873533,14525.6397541802,14274.2269750623,14446.1257842489,14651.8548053031,13208.4464338503,12519.7559160194,12968.4879062231,13073.4889321124,13303.3519542933,13767.1389550478,15169.3543755764,15266.6403449361,15322.7200685912,12377.2856947275,14243.1369107032,13820.5984721226,14320.9401063005,13265.9262442036,14247.4559608591,13606.7199874186,13927.2987794152,14604.9640717893,14594.7152626901,14388.5557786579,14812.7964069423,12654.5485620828,10826.7357580879,13427.1649419111,12868.1558176242,13791.3148975258,13742.882029696,14109.9930127113,14148.9892863567,13922.8148056193,13994.5627059739,13629.3998703786,13660.0514209676,5934.58271466678,6245.64467084003,7919.22421052256,12592.3402114137,12417.5375314591,12640.8215316516,13927.7834077723,13473.8974200433,13646.1944778887,12162.0705067416,15889.2609336434,15501.0795242633,4421.01886008368,4620.20610900906,4548.30432531418,12794.4161942003,13945.3765724939,13263.6503221943,12790.3806236362,13898.5680704408,13948.68239539,14760.3825853018,15011.8893690256,15984.3181395617
,85.5,12210.1418174433,13464.0531944066,14340.7562732732,11840.6145940056,12631.1948825935,12698.5218338182,12225.5859227196,13183.0741489305,14248.3789042594,14178.2557471859,14408.8309013737,14310.8721756868,9710.34483953609,14430.8619907517,14376.4384649625,14062.103270341,9188.89872953092,13636.8059020839,13729.1598207101,14155.8567905936,14602.6624456096,13886.054003653,14045.0581294803,13511.1596014608,12103.3332185646,14752.2644361065,13467.9740974055,13439.8116823217,10404.6664997239,12437.566286742,11531.5798154343,13038.4581377599,13436.8740999456,13898.0150988293,13784.5914440215,14164.261559855,14023.3156758265,14204.1746516661,14415.8963541971,12824.7718358662,11963.3934305673,12436.5388337315,12554.8223806609,12805.180513466,13332.7872277991,14912.7009862626,14999.5699164941,15060.9433848413,12171.2328643526,14001.3161388905,13587.6622683948,13946.8984356742,12793.9758116619,13836.778619424,13203.1872903713,13589.4212074975,14274.0674024774,14278.7321466322,14052.1081478755,14486.8326496069,12415.2274712969,10607.0959881223,13177.5442022375,12526.1014612771,13299.6870279547,13348.5452904192,13722.8015171898,13779.9763906796,13557.3492641484,13629.374123512,13254.6039213208,13290.2029931462,5863.83877157579,6157.67480248648,7771.97611640803,12106.9013885207,11891.0720046338,12075.083176844,13521.6251096374,13119.349280129,13299.4163901812,11901.2860360604,15613.721301219,15234.43698743,4413.09560686795,4601.38950537144,4528.79752212925,12469.1373818287,13598.8825185827,12899.1520878729,12363.271686679,13564.6386103667,13685.6836339577,14510.0494222388,14746.4070104102,15735.0469524885
,86,11793.8219096707,13257.5108163046,14133.6137513827,11498.124529571,12175.6869739152,12318.7764582927,11937.4971636352,12886.575320936,13997.1447346938,13917.2492035585,14139.0770805351,14080.0210266467,9209.86142824957,14181.3165690579,14157.9254217642,13781.6315530608,8506.53300680892,13314.3597085567,13352.6308875336,13825.3378487686,14282.6787943564,13558.7547947764,13694.7227846166,13212.7952494625,11779.6690214426,14487.7373951461,13256.502741236,13148.5168366636,9807.17360142172,11985.4357148176,10894.1798970807,12574.940465737,13051.5753776977,13538.6715406173,13329.0407531033,13777.2705419405,13761.5167924733,13951.9275828754,14169.1453750361,12416.0592415727,11363.5842835986,11855.6356065238,11983.0366907455,12257.3624517957,12863.2138239925,14650.2099190295,14724.6937623788,14794.8289324292,11955.4262204073,13748.6638228855,13342.8500113634,13541.4596171664,12270.0796198454,13387.598651099,12783.502181849,13240.8936111983,13933.6470493347,13944.4491906509,13693.5417548013,14141.4825001446,12162.4107230572,10377.7791918478,12914.1284499742,12166.4870419186,12772.4144202348,12930.2765262595,13305.0041422813,13384.324846424,13162.5726243935,13222.542326817,12830.9184781914,12868.6030439864,5791.82672759926,6067.66311821409,7619.21290652415,11572.5615157642,11309.3283876424,11447.7878360159,13061.177400114,12731.4848450825,12920.9053503702,11644.2335242136,15333.0569482029,14962.1914835801,4404.99683246513,4582.9852475015,4509.13491895499,12096.2406239606,13197.4639347908,12468.19844129,11944.5039966338,13231.3909649293,13418.417491572,14249.326023011,14469.2616543374,15461.9725366592
,86.5,11361.7395904188,13040.8722999559,13914.0738916505,11107.661921195,11650.4899753988,11888.5682060357,11651.6606792059,12592.6814643291,13739.554230916,13636.9254715721,13851.6959347732,13838.7941452247,8686.0762594745,13914.4287009842,13925.1064861426,13496.6984691419,7867.83216658781,12988.409751669,12957.0590792735,13480.7640218425,13950.7335684028,13215.0355467471,13326.7663081969,12906.3752686164,11438.3974123981,14203.9617391936,13031.1641895048,12840.6743332469,9167.29132718677,11499.8040196839,10212.4687731495,12090.9640198717,12655.8928450866,13153.2182900183,12839.1938260874,13360.9651181183,13480.0607033305,13680.4072387506,13904.1502670811,11985.8784341487,10723.6184022874,11227.2265853079,11365.2343549117,11666.2757819861,12362.0372382652,14380.5801086736,14438.3514674472,14520.4438003057,11722.8843602208,13476.0767631998,13077.7202959761,13100.8355540722,11689.5032334386,12893.8431792029,12349.9720077555,12877.8768859389,13579.9804053347,13584.5887727607,13308.9932026339,13773.0165049096,11887.5102855588,10129.7027175148,12628.101452551,11793.5651981232,12218.9307344008,12493.3963196161,12835.6089373441,12940.8037910103,12717.2502985523,12775.1226420724,12359.3869464258,12397.1887371346,5716.27429290003,5972.52015825047,7455.70975814378,10993.9299726833,10675.5136807837,10760.7101289964,12551.0446785994,12312.6633871455,12514.2081260757,11382.4040167411,15043.3155144257,14680.8989864197,4397.06562984301,4563.55621225092,4489.01028391675,11676.0403564816,12738.9400508051,11968.3449767946,11528.5564299377,12894.0145150324,13145.7981835552,13970.9801021294,14174.0180502985,15169.9043840233
,87,10909.4147251964,12804.682476217,13673.8603370706,10666.8604755143,11055.6432739858,11406.6204133181,11362.2684000729,12293.6406966143,13472.3083674295,13331.1173942892,13536.6441932659,13577.0825160951,8141.76467500072,13620.4735931277,13669.2694982077,13200.6288937645,7269.00145882805,12655.3871314379,12545.3165449303,13122.9487196845,13605.6829806349,12845.5547997059,12932.096432296,12578.8881378223,11070.0484218925,13888.0246516855,12783.0203356625,12514.0218764564,8492.88982858782,10982.4350821482,9516.83129689379,11597.6436504826,12247.6391125544,12719.0281655606,12307.9583439729,12903.7592008299,13166.795166086,13377.3728865802,13609.2610228042,11541.3714135788,10062.1174370045,10567.7042791535,10709.793412898,11037.6907263218,11827.0514060674,14102.3924997074,14139.1805689634,14237.0916951007,11463.8930282676,13171.0999781765,12780.9292184158,12611.8761416043,11045.6214432788,12345.1926061508,11883.7500701339,12483.7085331492,13192.7866878639,13178.4057711994,12878.7150866266,13366.0470120212,11578.4434613581,9851.03602539394,12305.7960381331,11402.5497292608,11643.6128311805,12037.054193377,12279.305561926,12412.4435010208,12184.1937503229,12293.953997641,11843.507126471,11878.1295864078,5634.02721264789,5867.86652187929,7275.45705245921,10385.0505217507,10008.3264675489,10032.1303664767,11994.4371411738,11866.6185561205,12079.2142803815,11108.7235675419,14740.3703171219,14385.5638870687,4389.31008966366,4543.20271399573,4467.86889496041,11212.0964099495,12227.0911197614,11401.6206642459,11111.8280414747,12545.9467166746,12861.7854953999,13666.9497547432,13850.3660331132,14848.1732962521
,87.5,10430.1022077502,12538.2870163143,13404.9211332538,10168.9383103814,10374.2476978078,10868.596512524,11055.1793679352,11971.4916976438,13174.9930214087,12977.6294673008,13171.9100830192,13277.9598631554,7600.09930352795,13285.6047838603,13381.4970462534,12878.0093479777,6726.16784007269,12298.5888428529,12103.3707865973,12732.7620599856,13224.5846551375,12436.7981849391,12495.4693827183,12208.0064109749,10655.7056953581,13525.128754244,12501.4407192682,12154.204710253,7806.71377495964,10434.4225736734,8818.44389172724,11074.2451318383,11807.789274094,12204.3221929468,11718.0953783763,12376.1206497481,12806.2530029739,13027.8267182832,13272.7842329393,11061.8064112057,9388.0827391114,9883.97162638752,10021.2799643361,10368.3263294112,11236.6672383243,13810.5704064528,13825.2210217009,13941.4762141102,11165.1713465022,12818.2114629432,12436.9900604505,12043.4334191151,10331.5794283346,11717.2518089362,11353.3137657464,12020.4204640509,12727.4132453516,12678.5321113649,12368.8711112838,12887.1132022429,11217.6679047586,9525.56344330442,11932.2020651467,10965.1364637092,11018.3264716278,11529.1863305825,11557.9175662349,11718.0002061387,11485.2822627211,11790.0562533169,11294.6422335451,11322.2954598844,5539.52422072537,5748.1278686654,7067.34690501325,9748.31998792688,9321.87143949732,9284.55377126832,11397.3472063318,11398.9710002091,11622.4599552177,10804.0454793821,14404.1451452581,14059.3509926315,4381.46156080964,4521.85000408916,4444.44321555141,10718.1777302754,11672.2897112698,10780.4661777239,10684.1105620114,12170.286957818,12546.0764191613,13306.6378361001,13468.230162617,14468.129507238
,88,9926.82415888234,12234.3746579524,13100.1188884521,9621.60824243732,9608.20787041304,10282.9637533869,10693.5233472932,11588.0103515835,12810.2520652768,12526.5364849307,12711.1478819642,12894.7217263857,7080.25905959065,12904.1342301959,13052.9843869152,12495.9389734773,6248.91516251212,11882.4591065474,11590.2167314457,12259.8008215302,12749.1457379529,11968.188704434,11995.7479574627,11771.2974433367,10189.3403083625,13109.2439963606,12179.7052211459,11726.8156402037,7132.84395913559,9849.56488079612,8119.39020644826,10507.8806566001,11317.8278109411,11543.6834572675,11023.2726123226,11719.6590414787,12392.0685358088,12624.2356496314,12887.5964310726,10532.9198418869,8699.90646917415,9175.4753120766,9306.31810524718,9657.66908820078,10564.0679926199,13499.1416030467,13493.256429462,13630.8409845505,10821.9220153692,12410.3335256683,12041.0137443014,11372.2264491354,9561.36518591665,10997.7422909557,10701.8528754446,11409.1143781331,12090.9316996003,12007.5151312033,11704.96916709,12258.6662651355,10801.6406280203,9150.80428293414,11501.6072233015,10445.9150779823,10327.5328515819,10941.2839911517,10669.8605720329,10850.5294171145,10617.1755855734,11274.4489270236,10731.0750937681,10747.1600236653,5431.42417157448,5611.76218469449,6830.0464452347,9088.69152128971,8640.16917528033,8549.6300250935,10774.5352239678,10917.9771363087,11150.6649710749,10428.8692205881,13999.7847784032,13672.4889157355,4373.40086771849,4500.01633554985,4418.47476234091,10224.5725654219,11112.6810663763,10150.8650820159,10221.554980985,11726.3036058035,12152.0710565314,12827.4080434059,12969.5207393607,13977.7451429458
,88.5,9399.38847035381,11882.5516326211,12748.5468764467,9038.3457128219,8777.63094068127,9665.46420806943,10192.6387400939,11054.09896472,12306.4321162282,11884.9065169233,12056.3127119614,12322.7394608589,6590.79452207163,12460.7583513462,12667.9388728392,11986.3440621465,5846.94157646462,11329.2962720525,10910.6973813373,11600.16650123,12080.3711397851,11397.0538305699,11386.2477307838,11216.0807741106,9665.84376881447,12624.9170914571,11799.1161306105,11165.0631411229,6495.19123260516,9185.70181859561,7422.3245074187,9877.8747964381,10755.1718383792,10727.5325687233,10205.32409155,10913.4297570921,11911.4728946734,12150.6617679422,12435.6344892955,9938.48923410511,7990.61677417148,8434.66479640451,8548.47119907033,8882.48940320173,9775.14509681853,13155.2862625271,13130.7560728526,13294.3289120401,10421.1177122549,11930.5282290201,11577.5746194079,10563.0945724411,8727.92455649937,10157.7592307303,9899.90025383109,10618.0015153654,11259.1465508769,11157.3190360886,10868.9735442546,11451.5722281876,10322.9883499695,8725.22476653919,11002.0374960857,9793.45272966888,9543.89145028847,10220.1152430364,9634.80818629182,9823.97577026224,9598.74915001066,10747.5384326922,10162.4196930966,10164.4980566906,5311.43680025305,5460.28521825311,6565.78868836438,8391.25376826657,7962.69365771243,7834.70032591677,10144.6242505679,10428.9043281432,10668.1063260418,9923.55985728171,13474.333487938,13171.851428267,4365.23115600937,4477.02022154366,4389.89930415945,9736.88298016213,10558.7439397137,9536.15938666841,9656.32300328935,11127.6311189899,11619.8805629033,12133.3084415394,12242.7833928653,13267.1491137925
,89,8841.73779923015,11438.0356942786,12303.5834217322,8426.27596837109,7912.35228839243,9021.63415671499,9521.47711053287,10328.4932867602,11618.3441555318,11040.1911164522,11190.7280668423,11525.5172195544,6146.62012610665,11909.9294054781,12172.2368782722,11309.3230347534,5523.89989531986,10615.2989552811,10065.362528525,10742.0840994414,11199.6401428241,10714.4876599663,10664.8830362775,10530.0572708896,9074.6638666014,12026.0806064119,11307.2318672356,10458.5611171705,5925.05609605522,8455.90527138159,6756.73399409486,9168.49030556908,10079.7948561808,9765.88820884653,9279.35782743312,9962.91732499268,11329.4841340805,11563.9865506525,11867.1945417719,9265.50020612563,7277.19365512652,7677.30545574994,7763.84139972011,8060.09894620159,8886.03321979508,12717.1650550553,12691.4537000921,12894.1064840745,9928.14780410447,11336.6992081414,11005.1818168064,9629.83150699935,7858.81395440254,9217.9910792314,8970.96892430784,9662.72732437665,10244.3187144407,10142.460695922,9875.83342080247,10472.4380381244,9755.87004026134,8239.6490793139,10399.4516526998,9009.59507998506,8674.97754524625,9365.75625796415,8507.24846861226,8692.38837531884,8484.61999688491,10202.1775950953,9584.27042878055,9570.06126990502,5181.04046972575,5294.66154093339,6271.48165610829,7677.23986834429,7314.21322067273,7171.4703571331,9507.80035748169,9925.99556853187,10168.1977856453,9290.87587868649,12779.0600066923,12515.6932138943,4356.83717169408,4455.05076281121,4358.78966385483,9253.05363656629,10012.2523629865,8946.03959011119,8988.28694100671,10368.2904875865,10906.8473287252,11216.3975872785,11284.6931645865,12316.3275565525
,89.5,8218.46551344628,10792.2821391328,11640.0969653867,7795.94770758729,7041.47343855842,8359.02119159335,8687.49562801348,9414.62481501043,10698.2565544869,9998.97334243533,10127.9063332987,10513.3085202281,5750.78529078371,11147.0844984632,11448.4346422376,10433.0206210599,5275.87800187202,9731.89325377367,9076.00048722389,9693.53116703455,10109.8721386626,9871.79952012026,9794.05695325916,9693.79000430358,8393.17579182605,11220.6769703272,10606.483415291,9600.55819854566,5461.07776750259,7688.9101524884,6134.76740083495,8377.5406295942,9293.57434166639,8702.64541794774,8282.81087811622,8900.64342264372,10570.3690368188,10781.9025735103,11088.693263751,8498.03092074282,6581.38869294187,6927.07323333679,6990.00809013458,7229.19965945864,7937.48776403458,12063.6543564854,12050.6212845317,12307.8465700066,9277.98096186028,10553.4503648534,10250.7347204378,8615.95631581203,7006.68020428691,8225.41806202436,7973.14456776825,8591.98472932662,9094.00103459928,9013.41061521766,8776.9642206045,9362.51319890862,9058.40060018035,7672.51368561649,9640.16016034923,8124.97949352443,7761.11756072616,8411.92798576044,7371.86748819215,7538.4982760383,7361.36986308506,9626.81752770495,8992.81066216425,8959.96582688448,5037.90406634153,5112.34633863639,5937.50381909314,6970.7071382433,6714.82636078859,6582.61756885946,8866.24717785497,9402.66540632592,9646.4451562818,8535.71346624418,11871.3850920197,11661.4649371037,4347.87336771158,4433.91927737752,4324.59232343919,8768.85165474398,9473.34267028328,8390.13680980964,8228.6560046492,9456.12706758741,10004.4360024387,10088.2132160323,10116.4130098193,11127.1052419502
,90,7555.30580349511,9943.01104388676,10741.235351095,7183.29853457158,6240.0245906958,7706.46946132578,7726.49100722316,8350.27386356653,9578.75176371296,8812.1321065847,8918.81476352484,9323.57679841953,5406.37170715335,10186.3416505012,10498.2285229662,9383.82416995548,5088.16268566866,8714.29583433787,7989.85252095322,8506.72774612038,8867.4818026895,8901.46393203094,8808.79165337931,8742.85379073944,7662.96087340068,10228.247624698,9709.71748596074,8616.32979784512,5108.66368257392,6913.29346960732,5589.90407274441,7560.90100827287,8421.49126735281,7623.09374851322,7293.61364716819,7810.73018175191,9650.55593269986,9825.50065276307,10115.4352437238,7699.53943429441,5944.44328195988,6229.43120425355,6287.97352443761,6459.77893259888,7016.6239584111,11171.780292265,11171.8724692574,11476.7862962851,8492.5986762369,9606.47428121879,9340.9485178387,7617.81762400458,6247.15054594455,7274.12600825857,6989.93744387462,7492.28631372419,7908.11763994444,7871.42382487684,7660.63937545264,8204.64901741548,8266.23583650335,7062.7559725348,8760.88401635952,7211.56957404289,6895.41923733583,7442.83369932749,6408.93289314325,6546.04606701447,6407.03099922601,9018.48415447037,8391.46624189046,8336.74415041957,4894.01250429097,4929.04388028592,5591.86637314046,6319.70291695575,6194.43171895861,6090.79311868475,8238.29978957989,8860.59745603759,9102.01840984064,7694.43887594435,10750.4152966156,10594.4242515586,4339.03737211933,4412.63706567112,4290.89733300746,8284.83614388852,8948.52221394859,7885.97283533552,7409.87629902343,8434.1383856974,8953.89607439177,8816.37359487952,8804.81490829776,9761.72707753232
,90.5,6867.67574055593,8912.79601586101,9628.45532386474,6610.73673972128,5570.8588105959,7080.30912350998,6714.19871289338,7218.70655058923,8339.80519023929,7589.42541699177,7667.44910454814,8053.2548668302,5108.54772367159,9053.94730886534,9348.05054438437,8234.35210160675,4945.12602139549,7638.89040212953,6904.12642571738,7294.53234921704,7600.11040312553,7865.51932209332,7768.81280774101,7733.25949245521,6911.61712823096,9079.15375779092,8643.86747449631,7584.21011603896,4857.02986240094,6173.55228086122,5150.20565297797,6760.10227744109,7511.51543692246,6671.67493587545,6424.68960552253,6824.07013412835,8600.38036471291,8726.46568447124,8978.45976187279,6910.54895181146,5402.80341821163,5625.4955255317,5690.25230707506,5795.01809890276,6200.18406408301,10057.6782124859,10070.879120423,10408.2838750102,7598.40617286646,8528.48408193031,8305.56424888316,6706.36508603719,5615.73190865431,6424.96947072522,6147.02807804199,6527.54990990495,6871.92898060717,6871.63323441743,6679.13426890186,7149.65526778353,7407.18392411064,6432.00002788191,7793.41744940429,6349.88087115089,6135.63215264152,6533.90579159465,5661.47270576234,5765.53232458781,5664.39269618018,8362.36806230123,7771.19257908253,7694.58858649964,4755.29167879294,4751.41781679173,5247.60321723088,5755.4555868967,5759.07417822687,5693.22773039122,7626.49864424818,8286.49552553698,8518.08971638533,6849.87338996787,9493.50613372008,9382.76681909021,4330.36512248445,4389.82203967961,4258.62636936048,7780.05882227783,8415.07688047938,7417.55486198878,6589.11560705461,7388.53688834509,7849.7967990666,7539.54942458272,7481.27013461575,8339.21748880368
,91,6174.06335975274,7741.33517259907,8342.01283547593,6089.17455272876,5078.7989719933,6486.04532363139,5828.09677414415,6209.06065964221,7137.50034693212,6532.48752735656,6588.17346084884,6922.99367006882,4856.70258134826,7803.10512280997,8050.0125327213,7127.81081589717,4829.68400032415,6670.62875908657,6023.7671842275,6276.77710753411,6517.78209336655,6860.66175775913,6784.90897313277,6782.33484165652,6171.66128832385,7828.53695278429,7464.64350275971,6649.83172292901,4694.49275703149,5577.51863741923,4837.61397711315,6032.30411651063,6624.12776485731,5887.2755731231,5728.21363645196,6003.58058187031,7468.61199145108,7540.48192268981,7736.10225444534,6176.25691882285,5002.21508600733,5165.3438641711,5245.98568183394,5295.82387525782,5570.00661244775,8764.15929716264,8788.56324272916,9136.94492824214,6641.33978401609,7376.67986808838,7200.55849890803,5970.99185321944,5153.14570199803,5757.00533596229,5518.2779010506,5772.87678641392,6047.95146650833,6054.47327795178,5890.65192418601,6273.60864124693,6523.44351701861,5805.65926172076,6789.19991010526,5652.28542348809,5554.35806967634,5800.6061222961,5133.73791490299,5208.774136137,5138.86501925112,7666.23502788196,7136.9269596344,7037.92418674186,4624.10689114728,4583.61547548275,4914.35433867644,5324.49340371146,5429.79673112423,5399.8818740208,7032.9963986964,7674.72148350394,7889.26981673223,6130.44185955203,8217.81297407237,8146.32353655762,4321.9700536833,4366.3117858162,4228.23590597588,7252.30235014716,7869.98522583678,6977.52750152927,5909.54356246626,6499.10027985968,6821.5268422838,6468.19370178445,6391.51557950661,7096.41640390187
,91.5,5519.28457312232,6539.20739651738,6998.43735666529,5627.06179771598,4753.25205200597,5938.65002727479,5150.57767609737,5418.95884414174,6082.68036112286,5697.2825805853,5742.9224546619,6031.89662967259,4652.74241949185,6558.7239916608,6740.64136466736,6159.83600891156,4732.28675201988,5871.07122157343,5370.75285257956,5498.66222014657,5676.2842880227,5943.70239496745,5900.7865652609,5933.27915716203,5503.00168870662,6601.94452298873,6304.04122380698,5856.11239556514,4595.81198814872,5133.84387315872,4629.45270896914,5429.74579206874,5851.64246803584,5291.2628815411,5209.66111570672,5371.98375197872,6360.78722763744,6389.56736935928,6520.54563662541,5542.92536869576,4736.4170866405,4850.08792247336,4944.76735809612,4952.35290604508,5121.99816074744,7428.35865833681,7439.73035437899,7755.12081569377,5720.94646641382,6272.7555098971,6144.60476875924,5421.39364091968,4845.86550347616,5271.07588191252,5089.33598324694,5230.60588893977,5446.67019488151,5435.08602156013,5305.58040088421,5599.83916328179,5702.07455425946,5236.00281948735,5854.67537594158,5133.80477817426,5156.26174294267,5263.32339157112,4802.62053624861,4854.18040969082,4808.36708941936,6955.09944809634,6512.88414492069,6395.59727412366,4506.39516949183,4435.52780466104,4618.96702136061,5015.01081707478,5188.58979649058,5187.00941253164,6464.75832932905,7033.30122727082,7222.05956415942,5551.51580875333,7040.43924686356,6986.55075856477,4313.94394169619,4341.59373736566,4201.35301758021,6721.44114265805,7328.9420438836,6571.65767537762,5389.08768864262,5794.00943286506,5967.24373523624,5647.29820352243,5575.25774893782,6109.27867384044
,92,5015.03619070421,5560.52221647674,5881.57911543451,5234.99610677765,4572.46470028176,5455.52035028907,4688.17435563669,4868.04318622783,5290.32732611234,5105.43711055022,5146.7327170133,5390.66243216182,4508.07061324029,5571.72943843099,5690.11027693548,5418.87614743608,4649.77242346313,5277.41772829542,4930.10739325038,4969.03627486503,5097.59105266515,5255.49141285989,5238.15989827135,5284.94730993003,5000.15125610519,5634.81338759187,5392.62651710177,5241.98174080651,4527.38697295011,4823.53935368741,4503.88718918773,4979.56171039125,5231.05524649764,4888.18496341936,4864.62999880048,4936.79757871379,5479.51845081823,5487.40452218894,5563.75698274745,5066.61382864436,4578.42647578147,4654.62236708837,4756.27598252485,4735.37453822721,4833.06095629858,6303.44988414008,6285.49709718862,6519.25586121739,5006.97667922808,5416.119037303,5330.27019000879,5043.52280413125,4659.35871375007,4946.40692549673,4826.22757588908,4878.01105388904,5049.20630008064,4999.18767252857,4905.82491632425,5118.47460555433,5077.25377102108,4812.45580002042,5149.31345184696,4781.37308751507,4909.99340360554,4905.24190134343,4631.4972487008,4666.95653493608,4636.08607288837,6271.76934787772,5931.38297365573,5800.69172145749,4418.17665427693,4327.37784991521,4405.42924755057,4804.14925206058,5011.40937207721,5027.85033737196,5943.25118537584,6393.5813976155,6549.27369080659,5126.56348776853,6069.45871618737,6012.47021544995,4306.54805141738,4316.26314424681,4180.68321527734,6211.00087842638,6811.07786677491,6205.17622248744,5021.607300431,5281.90215962543,5329.0635329446,5090.31798373925,5030.94562390871,5414.07964529097
,92.5,4660.12209051048,4850.53527087406,5063.54752218787,4907.17165687216,4489.54337389438,5042.28945953388,4422.02364473998,4540.19371123317,4762.98160768041,4738.88586027871,4779.68301006636,4985.22911728618,4410.24587409613,4868.29282460373,4936.16260007496,4910.94239752924,4577.22653296687,4881.64183698565,4674.72397159209,4661.60909637807,4755.48539739971,4790.28182478088,4793.3501624134,4843.53778436566,4654.70103384649,4949.73464147913,4747.37538490223,4821.61236914792,4472.668390046,4628.97712167809,4431.20916826515,4667.69614289768,4789.50656106908,4644.28161986746,4655.0351871174,4666.27711321953,4854.84397230122,4851.43293763087,4887.59621805912,4720.32897483091,4491.40106103419,4541.96654252452,4636.54420178076,4598.85362034109,4655.47825516583,5462.21510248151,5420.87313879644,5569.77308068361,4506.62244863159,4816.6878965135,4762.20950384595,4792.89579860898,4544.37616223851,4734.27248730607,4682.69472128406,4672.20355509189,4809.1650631117,4711.10058908284,4653.87017682309,4796.51699404155,4644.68288190724,4520.97925529279,4664.34456461778,4559.03101303696,4759.73820212464,4682.23073610613,4525.63704152467,4552.67583590095,4529.69768995494,5652.84897528579,5418.71425856719,5283.97381741497,4354.56058779402,4251.68895730426,4259.44103652529,4658.00678957324,4871.37302239841,4897.78060889879,5476.53413856217,5783.52291901144,5904.00541643411,4845.50598719177,5377.72433119441,5315.12230443069,4299.47358690558,4292.58861959857,4164.0707830709,5738.04212687837,6327.24846463616,5870.6606792404,4788.36642561363,4945.29183238933,4898.21414897282,4767.64914115186,4727.1310146824,4988.67640195221
,93,4438.56850964668,4397.68283108164,4534.96489145507,4646.6922901169,4458.57248885317,4712.19632097303,4312.99133987139,4392.97502835878,4466.83204680749,4546.0956546488,4591.63510647938,4770.48939215502,4351.20116530524,4432.28863464903,4464.65853485089,4605.96051882262,4512.81045186704,4651.27544583954,4554.78486917107,4519.6048750191,4586.88044118829,4513.79322057322,4532.89359999274,4580.2422790029,4446.82202651976,4527.60872359491,4352.55145921613,4562.07735180674,4426.19804791457,4523.85540434452,4389.196710324,4475.28460506335,4511.06965760227,4488.84060856895,4525.48111125922,4498.1490761896,4466.87180492989,4462.13182960064,4472.81482530268,4490.73258606507,4447.70330305386,4481.88320979222,4560.62313483095,4514.05934597474,4550.07842545025,4901.92216577861,4843.40885095625,4916.4889505832,4202.62646463904,4453.56473503762,4421.14789248747,4640.06489593593,4472.99447195408,4605.93758650558,4596.6545585359,4540.79514634818,4650.48073041732,4518.20144451906,4492.1226954467,4584.24429101958,4385.07643108676,4345.85952740582,4378.35874713038,4428.34289225524,4670.69862883135,4554.8772507717,4454.8887428291,4478.47252813016,4459.70606952068,5152.7265233657,5014.05422767787,4879.45167151836,4311.08460469077,4204.02092855961,4171.31514067933,4554.18388065155,4756.30292910997,4787.55891819003,5092.53240178431,5256.82411757293,5344.72783866891,4669.1971066101,4930.87690618002,4865.22325310164,4292.71562726373,4273.18482608384,4151.16938524581,5334.66395519785,5904.56504664371,5575.8703597236,4660.3872401841,4747.67928690363,4636.83006368747,4610.23936421252,4596.27458485947,4774.63192419249
,93.5,4333.26823649147,4177.12139113,4271.05670341212,4457.59420006108,4438.40736233587,4477.47632480752,4267.81391039214,4328.01665457736,4321.08293026486,4423.31071419819,4473.47928396056,4636.86934629061,4321.882165247,4230.39446740799,4244.27295888929,4432.84442420214,4456.13718798959,4505.32501045698,4465.20593594364,4430.38351337501,4485.00148326775,4371.31617254867,4394.77435900034,4431.69331122255,4351.86784480219,4334.01477013396,4175.06429979127,4393.04882673902,4383.75792458362,4449.4065251012,4357.10560929036,4368.8079004487,4359.9740919351,4396.42653096234,4444.23861444326,4395.76974672753,4284.61897180044,4284.44690069749,4283.98349021829,4354.8408465249,4415.0443793791,4440.18176924495,4497.3076388428,4445.08832029943,4470.52432799377,4598.92533305032,4528.9583221906,4538.84107711582,4066.39878608692,4291.54722110993,4272.25314256818,4535.96490287155,4417.39688165723,4516.84651470227,4527.77621095725,4444.87246427423,4538.90528272249,4393.84736078303,4387.03591982892,4445.29882438754,4269.91985886352,4268.14823652319,4258.02506708339,4334.38369066237,4600.18593468458,4466.13480886116,4405.29464912385,4427.40057107602,4411.77448507622,4788.62429462189,4728.038836758,4601.64381079738,4284.98813326069,4180.04256209038,4132.40337533712,4463.09178039152,4648.16201332186,4683.50770806948,4800.45099400164,4843.44419017354,4904.22133506288,4534.92339867818,4668.03519183802,4599.73700793284,4285.95520005302,4257.83720381656,4141.42377593047,5017.64225588081,5557.47433649062,5324.71944872502,4564.30954959437,4602.90960066254,4483.78070962793,4509.43104832792,4510.75056533751,4649.03311761447
,94,4310.50374056421,4128.2842557542,4209.15578826818,4332.86814671436,4421.52244763759,4326.97874121642,4239.29864768209,4292.51144042628,4264.85244078123,4339.16286124324,4388.932249524,4529.37373510813,4309.805830975,4191.66346899689,4199.95413082537,4342.30328679739,4408.52268635363,4412.39163785654,4391.49925768621,4367.22546209051,4418.89939384314,4325.96709555266,4347.32092777939,4370.88152687812,4329.84214995,4297.31558977676,4142.2193607643,4291.98096945272,4346.65325408808,4393.89669059472,4332.07885244744,4311.7363235269,4282.83454884321,4346.29741971112,4398.14476657103,4337.98640100796,4246.50071151767,4249.63361987373,4247.12049956753,4282.06576551078,4385.44113529218,4404.57191778032,4443.34677894081,4386.61291783918,4409.04413236853,4482.98800910653,4415.39925121797,4387.32326810535,4041.35541907809,4260.63078546617,4248.25477853361,4466.01114695119,4372.58377644305,4455.20661933657,4473.61583984343,4374.83170163851,4460.96204641438,4319.27998186505,4322.85460844247,4357.71673180284,4247.64100836345,4253.44350895447,4240.54350442093,4264.17618590863,4539.08241969866,4397.69216788212,4371.06894235557,4392.64437019836,4378.87017305548,4555.21958816619,4548.65928085916,4429.99776534206,4271.16508876934,4172.43254932151,4124.40812769263,4381.64953703986,4548.8483590128,4588.42676987494,4606.37660425266,4562.69985731457,4606.07586072492,4434.61121533249,4529.62423711588,4465.40566775928,4279.45943243818,4245.96570806438,4133.8999261414,4775.05817511025,5274.01414249714,5107.83779371369,4489.05770459545,4497.80594951184,4389.15785390276,4439.04695206839,4444.81859832361,4568.56656536952
,94.5,4302.03473845533,4113.95741253924,4195.9687993133,4238.50472459452,4406.18220887727,4218.0638148002,4216.36511640915,4265.2148041637,4231.44829172204,4267.52230962334,4315.8861364234,4431.78192756508,4299.91178196134,4180.13864687912,4186.82823288322,4274.9013465848,4363.39548956218,4336.57819890423,4322.12644921188,4310.49830812636,4360.83817597851,4293.91483533635,4315.51108044898,4332.22996855015,4320.50217031914,4287.50496020543,4129.46208115488,4219.30359189438,4311.18246366283,4346.3796943549,4309.62613624711,4275.93990118996,4245.98107732079,4312.92501712306,4366.81773933188,4300.47783229731,4238.49795532578,4238.09843919785,4234.62324553141,4227.37989531404,4356.80234191137,4371.29850695074,4393.31259377768,4333.28935071972,4357.61481901982,4416.88814397298,4363.34649823115,4324.9628303544,4031.93381535516,4249.48404137708,4240.49858244129,4415.67401217778,4333.47269355759,4409.34159669586,4426.22725233967,4319.15837474922,4404.09298076217,4280.6091450419,4285.56541635849,4302.4015685783,4238.49032023865,4246.02066495612,4233.9964241122,4202.64789094305,4480.04676979013,4336.33690435182,4340.74281614926,4363.0543987218,4350.30482240359,4388.5479945034,4426.57054059219,4317.44219627874,4258.71656652281,4166.61714142631,4118.46325023487,4304.41933064667,4452.41347754737,4496.57081649671,4456.94403754312,4339.58055539878,4369.00959661505,4345.58891322544,4447.51127741267,4395.61995634028,4272.87854167354,4236.93684663611,4126.43165863085,4571.63345677692,5024.4739237365,4908.66332156054,4422.16702792815,4406.96931915977,4314.30316416027,4377.40792960833,4385.27732001422,4500.95256617456
,95,4294.37895837793,4105.54050717407,4193.60654013122,4214.70297798984,4393.05276796776,4198.42707712033,4198.74903429642,4250.40007178467,4212.50059849319,4216.16043027767,4259.47894951342,4350.29559727325,4291.34308459167,4170.85911305497,4179.00117763526,4235.51667087452,4331.15955095867,4294.34471400743,4275.67222529778,4271.9396487412,4325.30119441532,4270.05116445532,4291.65842716879,4303.34845011851,4312.55175629836,4280.52633990264,4119.92982498718,4184.32804258708,4284.0301782445,4319.87878886599,4292.48215292933,4253.65500119764,4225.83428047498,4292.24477216637,4351.14277874111,4277.09519835389,4233.30717142206,4230.88900482145,4225.85993402495,4198.61737405455,4332.52084608714,4343.87749575977,4353.83760003795,4289.85612804759,4317.47355797923,4371.8745194872,4328.11418825475,4284.05585827499,4026.36980509317,4240.52888243284,4237.15087426771,4385.1543947634,4304.08267535704,4380.59530573593,4398.74511963223,4289.78194269571,4375.71710569124,4269.18391702025,4276.17195504386,4289.4429297939,4232.2566048021,4240.03372335256,4228.77883306155,4167.70394814395,4434.9304505926,4296.16709596106,4318.45527613899,4340.60909011379,4327.49762917411,4347.71425402043,4399.5051718921,4295.60461065394,4246.83777396405,4163.05333065032,4114.56289482789,4239.01481385235,4370.93729948903,4419.89709667917,4417.71073351349,4281.83011522263,4310.18742105578,4284.45956146683,4388.4046180654,4344.54921972674,4266.85410291842,4229.95407086842,4120.0045731037,4440.25063971405,4834.70004820395,4738.88192816155,4380.83226928277,4358.14174695586,4275.90587822478,4332.92571106785,4338.08608000252,4448.41374137072
