,Temperature,A1,A2,A3,A4,A5,A6,A7,A8,A9,A10,A11,A12,B1,B2,B3,B4,B5,B6,B7,B8,B9,B10,B11,B12,C1,C2,C3,C4,C5,C6,C7,C8,C9,C10,C11,C12,D1,D2,D3,D4,D5,D6,D7,D8,D9,D10,D11,D12,E1,E2,E3,E4,E5,E6,E7,E8,E9,E10,E11,E12,F1,F2,F3,F4,F5,F6,F7,F8,F9,F10,F11,F12,G1,G2,G3,G4,G5,G6,G7,G8,G9,G10,G11,G12,H1,H2,H3,H4,H5,H6,H7,H8,H9,H10,H11,H12
,65,21129.6816840145,23979.1647847089,22307.9593492498,21993.1022368444,23505.2309393404,22184.9983028562,21366.6568293267,20683.2980470995,21518.19969309,20407.2075427864,20720.047884063,20159.2372935268,22548.8301397503,22837.0072305513,23400.2092725682,19856.2378957079,20668.4663687911,20698.747500206,20895.2155574133,21931.8709409514,22189.9587750007,19448.6155903417,20918.30544326,20775.1857513758,12296.2667556557,17162.969445471,22361.7717552636,20327.6195757586,20881.1445968107,20551.4885063424,22255.4048502348,22779.482760169,24478.1814340535,19645.5239968256,21886.5292341223,19823.099405681,5363.20403081228,8037.39854506517,15097.4080726149,20010.3787567282,20963.881874638,20732.9157928527,22832.1787287963,22234.7171288156,22372.9781801495,21791.7621856339,22116.4400043446,9531.41827174263,5893.75294823975,9727.59650882663,18876.845771201,20544.7622929326,21269.826651548,20740.8402772748,22541.5741787358,19752.0898758544,23055.4205753998,21935.4216903247,11975.7804956371,9791.18428721044,5654.51727771437,8043.01226273578,7397.89620431428,22749.3473304694,18449.854454302,22295.3287183487,19074.4874625952,21054.8042889507,7986.01219139953,24180.757782601,24305.8010688615,16637.5730301092,6623.44881720632,10846.3570536438,6637.6316148714,21760.8958837315,21986.1414881874,22126.9609313429,22734.4036209693,21749.3182567016,6829.26698493394,22122.4249104349,22208.6213197121,21003.3246945781,6394.39088333753,16899.2443475436,8562.80552739295,20876.7201139232,21863.6099969485,21959.5768841796,22841.7822364437,21971.2852009836,6241.97660823652,22155.4668706389,22352.7901409859,7866.29705125441
,65.5,21063.9928850675,23925.5957482969,22216.1913893991,21914.7726894046,23442.2887804351,22118.2680841193,21346.1673514565,20652.6709838243,21467.5515902329,20441.1448468149,20776.6701545484,20142.5934182297,22493.1199626956,22797.8883642398,23359.4486103633,19872.5776316182,20722.4219539702,20763.7686226438,20855.8234896088,21928.3014709026,22281.9642082474,19511.0558488361,20984.784216162,20819.1350463789,12257.3028388952,17065.0024264537,22288.7980199881,20343.8134140013,20898.2668760862,20595.5499341924,22248.9635418132,22754.5811503861,24446.0660177742,19702.2927926326,21941.1438138926,19832.7583267512,5370.44956880205,7973.38502754323,15015.1669481957,20051.1926684487,21027.3949778492,20780.4081185299,22833.8409627853,22248.9419981496,22334.6872580385,21786.5716180348,22103.9797925587,9488.02747180093,5875.38424353583,9667.9070381895,18758.8346981737,20533.9201108571,21261.7553111625,20785.4869822898,22490.6659424858,19742.9548884141,23035.2991383974,21986.0031959829,11903.0502001238,9727.84939360415,5651.72327395695,7923.92219122787,7345.74807276081,22754.0134146143,18442.2104767382,22310.7781966847,19109.9498235742,21129.9777767996,7933.00781448303,24183.2567928381,24306.2690842232,16619.158349402,6588.82551824028,10792.0215641239,6567.62150342813,21827.3091994341,21986.7122424117,22129.0755245681,22710.4623757814,21770.2737718978,6766.37049483696,22133.591411599,22250.0922119053,21066.3353696484,6365.60074515066,16780.2165287171,8476.45475167706,20882.0229809385,21872.2234822336,21969.0192585823,22817.4094099665,21970.9824239883,6203.1529950418,22102.6969132803,22340.5592100926,7776.61285239336
,66,20998.3040861204,23872.026711885,22124.4234295483,21836.4431419647,23379.3466215298,22051.5378653825,21325.6778735863,20622.0439205491,21416.9034873758,20475.0821508434,20833.2924250338,20125.9495429326,22437.409785641,22758.7694979282,23318.6879481584,19888.9173675286,20776.3775391492,20828.7897450817,20816.4314218043,21924.7320008538,22373.9696414941,19573.4961073306,21051.2629890639,20863.0843413821,12218.3389221347,16967.0354074365,22215.8242847126,20360.007252244,20915.3891553616,20639.6113620424,22242.5222333916,22729.6795406032,24413.9506014948,19759.0615884396,21995.7583936629,19842.4172478214,5377.69510679182,7909.37151002128,14932.9258237764,20092.0065801691,21090.9080810604,20827.9004442071,22835.5031967743,22263.1668674837,22296.3963359275,21781.3810504357,22091.5195807729,9444.63667185923,5857.01553883192,9608.21756755236,18640.8236251464,20523.0779287816,21253.6839707771,20830.1336873047,22439.7577062357,19733.8199009738,23015.1777013951,22036.5847016411,11830.3199046105,9664.51449999785,5648.92927019954,7804.83211971996,7293.59994120733,22758.6794987593,18434.5664991745,22326.2276750207,19145.4121845532,21205.1512646486,7880.00343756653,24185.7558030753,24306.737099585,16600.7436686948,6554.20221927423,10737.686074604,6497.61139198485,21893.7225151367,21987.2829966361,22131.1901177933,22686.5211305935,21791.229287094,6703.47400473999,22144.7579127632,22291.5631040985,21129.3460447187,6336.81060696378,16661.1887098907,8390.10397596117,20887.3258479537,21880.8369675187,21978.4616329849,22793.0365834892,21970.6796469931,6164.32938184707,22049.9269559217,22328.3282791993,7686.92865353232
,66.5,20932.6152871734,23818.457675473,22032.6554696976,21758.1135945248,23316.4044626244,21984.8076466456,21305.1883957161,20591.4168572738,21366.2553845187,20509.0194548719,20889.9146955191,20109.3056676355,22381.6996085864,22719.6506316167,23277.9272859535,19905.257103439,20830.3331243283,20893.8108675196,20777.0393539998,21921.162530805,22465.9750747408,19635.936365825,21117.7417619658,20907.0336363853,12179.3750053741,16869.0683884192,22142.850549437,20376.2010904867,20932.5114346371,20683.6727898925,22236.0809249701,22704.7779308203,24381.8351852155,19815.8303842466,22050.3729734332,19852.0761688916,5384.94064478159,7845.35799249934,14850.6846993572,20132.8204918896,21154.4211842715,20875.3927698844,22837.1654307633,22277.3917368178,22258.1054138165,21776.1904828366,22079.0593689871,9401.24587191752,5838.64683412801,9548.52809691523,18522.8125521191,20512.2357467061,21245.6126303916,20874.7803923196,22388.8494699856,19724.6849135335,22995.0562643928,22087.1662072993,11757.5896090972,9601.17960639156,5646.13526644212,7685.74204821205,7241.45180965386,22763.3455829043,18426.9225216107,22341.6771533567,19180.8745455323,21280.3247524975,7826.99906065003,24188.2548133124,24307.2051149467,16582.3289879876,6519.57892030818,10683.3505850841,6427.60128054158,21960.1358308393,21987.8537508604,22133.3047110185,22662.5798854056,21812.1848022901,6640.57751464301,22155.9244139273,22333.0339962917,21192.356719789,6308.0204687769,16542.1608910642,8303.75320024528,20892.628714969,21889.4504528038,21987.9040073876,22768.663757012,21970.3768699978,6125.50576865235,21997.1569985631,22316.097348306,7597.24445467127
,67,20866.9264882264,23764.8886390611,21940.8875098469,21679.784047085,23253.4623037191,21918.0774279087,21284.6989178459,20560.7897939986,21315.6072816615,20542.9567589005,20946.5369660045,20092.6617923383,22325.9894315317,22680.5317653052,23237.1666237487,19921.5968393493,20884.2887095074,20958.8319899574,20737.6472861953,21917.5930607562,22557.9805079875,19698.3766243195,21184.2205348678,20950.9829313884,12140.4110886136,16771.101369402,22069.8768141615,20392.3949287294,20949.6337139126,20727.7342177425,22229.6396165485,22679.8763210374,24349.7197689362,19872.5991800536,22104.9875532035,19861.7350899618,5392.18618277136,7781.34447497739,14768.4435749379,20173.63440361,21217.9342874827,20922.8850955616,22838.8276647523,22291.6166061518,22219.8144917055,21770.9999152375,22066.5991572013,9357.85507197582,5820.2781294241,9488.83862627809,18404.8014790917,20501.3935646305,21237.5412900062,20919.4270973345,22337.9412337356,19715.5499260932,22974.9348273905,22137.7477129576,11684.8593135839,9537.84471278527,5643.34126268471,7566.65197670413,7189.30367810039,22768.0116670493,18419.2785440469,22357.1266316927,19216.3369065113,21355.4982403465,7773.99468373353,24190.7538235496,24307.6731303084,16563.9143072803,6484.95562134213,10629.0150955642,6357.59116909831,22026.5491465418,21988.4245050847,22135.4193042437,22638.6386402176,21833.1403174863,6577.68102454604,22167.0909150914,22374.5048884849,21255.3673948593,6279.23033059003,16423.1330722377,8217.40242452939,20897.9315819842,21898.0639380889,21997.3463817903,22744.2909305348,21970.0740930026,6086.68215545762,21944.3870412045,22303.8664174126,7507.56025581022
,67.5,20801.2376892793,23711.319602649,21849.1195499959,21601.4544996451,23190.5201448138,21851.347209172,21264.209439976,20530.1627307232,21264.9591788041,20576.8940629286,21003.1592364899,20076.0179170412,22270.2792544773,22641.4128989938,23196.4059615436,19937.9365752602,20938.2442946864,21023.8531123953,20698.255218391,21914.0235907073,22649.9859412343,19760.8168828141,21250.6993077697,20994.9322263919,12101.447171853,16673.1343503849,21996.903078886,20408.5887669724,20966.7559931884,20771.7956455924,22223.198308127,22654.9747112541,24317.6043526571,19929.3679758606,22159.6021329741,19871.3940110321,5399.4317207611,7717.33095745542,14686.2024505186,20214.4483153304,21281.4473906939,20970.3774212386,22840.4898987416,22305.8414754857,22181.5235695944,21765.8093476382,22054.1389454155,9314.46427203396,5801.90942472019,9429.14915564105,18286.7904060647,20490.551382555,21229.4699496204,20964.0738023492,22287.0329974857,19706.4149386527,22954.8133903879,22188.3292186158,11612.1290180706,9474.50981917877,5640.54725892728,7447.56190519619,7137.15554654697,22772.6777511943,18411.6345664829,22372.5761100285,19251.7992674904,21430.6717281953,7720.99030681703,24193.2528337869,24308.1411456701,16545.4996265732,6450.33232237605,10574.6796060443,6287.58105765501,22092.9624622448,21988.995259309,22137.5338974687,22614.6973950294,21854.0958326825,6514.78453444904,22178.2574162552,22415.9757806781,21318.3780699297,6250.44019240321,16304.1052534111,8131.0516488135,20903.2344489994,21906.6774233742,22006.7887561931,22719.9181040576,21969.771316007,6047.85854226281,21891.6170838459,22291.6354865193,7417.87605694916
,68,20735.5488903322,23657.7505662371,21757.3515901452,21523.1249522053,23127.5779859084,21784.6169904351,21243.7199621058,20499.535667448,21214.3110759469,20610.8313669571,21059.7815069753,20059.374041744,22214.5690774227,22602.2940326823,23155.6452993387,19954.2763111705,20992.1998798654,21088.8742348332,20658.8631505865,21910.4541206585,22741.991374481,19823.2571413085,21317.1780806717,21038.881521395,12062.4832550925,16575.1673313676,21923.9293436105,20424.7826052151,20983.8782724639,20815.8570734424,22216.7569997054,22630.0731014712,24285.4889363778,19986.1367716676,22214.2167127444,19881.0529321023,5406.67725875087,7653.31743993347,14603.9613260994,20255.2622270509,21344.960493905,21017.8697469159,22842.1521327306,22320.0663448198,22143.2326474834,21760.6187800391,22041.6787336297,9271.07347209226,5783.54072001628,9369.45968500391,18168.7793330374,20479.7092004795,21221.398609235,21008.7205073641,22236.1247612356,19697.2799512124,22934.6919533856,22238.910724274,11539.3987225573,9411.17492557247,5637.75325516986,7328.47183368828,7085.0074149935,22777.3438353392,18403.9905889191,22388.0255883645,19287.2616284694,21505.8452160442,7667.98592990053,24195.7518440241,24308.6091610318,16527.084945866,6415.70902341,10520.3441165244,6217.57094621173,22159.3757779474,21989.5660135334,22139.6484906939,22590.7561498414,21875.0513478787,6451.88804435206,22189.4239174194,22457.4466728713,21381.388745,6221.65005421634,16185.0774345846,8044.70087309761,20908.5373160147,21915.2909086593,22016.2311305958,22695.5452775804,21969.4685390117,6009.03492906809,21838.8471264873,22279.404555626,7328.19185808812
,68.5,20669.7185552606,23605.1436997913,21673.2405572704,21451.4124944074,23066.5549581117,21719.6533894375,21217.3756279225,20467.6844709093,21165.61808738,20636.5285293092,21108.8278728499,20016.7008137909,22158.4503480508,22556.1533909163,23121.649562202,19958.3254601072,21040.2545372795,21148.0420598678,20619.289420556,21906.281664633,22805.3587298691,19874.9844298595,21375.919507869,21050.6719332536,11989.5005483404,16442.9600861826,21838.6929803303,20422.6918379962,20999.7477952022,20855.2351864139,22200.7771984873,22603.9315695842,24250.2182025404,20036.5870658995,22257.075939463,19861.4969542295,5407.2478445022,7555.02916917452,14489.3839393498,20271.9988513098,21401.7034869194,21056.3095799749,22836.5540970667,22329.4194669916,22107.6272353723,21747.5115828301,22020.7540561353,9186.44163311148,5747.70876350516,9281.82415446396,18029.3838217475,20452.014145649,21199.8076594839,21032.4235919748,22182.8672125652,19681.7038831262,22901.5421827058,22276.2982501137,11426.1395798953,9303.56211661073,5623.08406140622,7168.12315475693,7009.91002429999,22768.423384266,18353.1466358172,22396.6958238011,19314.3784225209,21567.2965768495,7586.77299133223,24193.9072899522,24308.1892845205,16471.9764939552,6355.37312038176,10437.4117140467,6116.30606342293,22223.779776292,21990.5936279612,22145.0970023405,22568.9644772248,21898.8667214594,6356.95218263728,22201.6575276351,22493.4769103531,21432.761213434,6168.51884646753,16045.8253221601,7923.71394437466,20901.254067716,21928.209394722,22024.6164680508,22668.7251332582,21968.7113037936,5948.73391075408,21785.3760650353,22266.2420880909,7193.20317360935
,69,20596.1806707385,23540.9521198313,21590.7254923657,21384.8102284861,23007.5340133655,21659.9477663811,21184.252007838,20429.8469919912,21114.8802338467,20656.9369310699,21146.4473038607,19945.9626054941,22095.6878615033,22493.554117033,23086.2412548616,19950.6520708432,21080.9235557901,21198.2949687196,20578.3448514078,21901.6262859203,22838.4043755058,19915.8889939572,21423.1883780019,21026.9364245637,11887.3265507472,16272.2658187062,21728.6334386943,20396.6809370727,21012.0636951345,20886.39994317,22170.6103836566,22574.9171309354,24201.1244885719,20081.8732204562,22287.6387752701,19813.3694724227,5399.89202779706,7425.82690979816,14347.6848020964,20262.30905583,21447.2867129869,21081.6935411025,22818.8556151691,22328.8581524094,22067.4949422494,21716.8923690739,21990.5398191058,9066.84659744027,5696.56811525745,9169.14026334614,17867.4976766239,20407.1037384449,21166.4866496112,21028.0903159245,22125.2980702143,19658.1744711427,22848.7828472757,22298.7041512176,11280.2969969117,9158.04149689897,5596.1522816661,6969.28786676846,6916.83449520091,22737.5613134442,18263.7516979919,22394.9979529105,19332.5901765192,21614.6598803206,7480.41407126254,24181.1023767277,24301.0412923953,16388.6893309643,6272.30242523065,10331.8540472302,5985.31214215907,22248.476423854,21990.0289570706,22148.1669155925,22544.4256893696,21920.1996081079,6231.06325274242,22209.9280783072,22518.8358741521,21464.4819486466,6094.68315059351,15890.3578540609,7770.26205695068,20878.3103069695,21940.777117313,22032.050180507,22634.7958056944,21967.0035661967,5868.52880720595,21725.2986264074,22245.5079606283,7013.69326779198
,69.5,20509.2984217737,23452.7693182724,21502.4595122121,21316.8913427379,22941.4821436364,21597.1880953521,21138.6134217704,20381.0495764609,21058.3038636364,20670.2286754347,21161.1712918587,19842.674736597,22015.2352776762,22401.4473852445,23046.9157931123,19926.8600285491,21109.5488597445,21231.7870700873,20532.3101271916,21886.1795846858,22832.4899609633,19943.6971449505,21451.8413539453,20965.1708082769,11756.0774752556,16063.1412205649,21584.1296869962,20341.0460234011,21015.7146128512,20902.8865186793,22119.052059042,22533.2494997915,24127.2212211117,20118.2098091941,22294.2924531561,19730.0079906621,5385.43900164516,7269.93275553459,14177.6445401372,20220.6162036712,21477.8514527185,21086.0701774677,22783.33357274,22306.5969039936,22013.72442499,21663.9389608446,21944.1044198124,8916.26793802127,5632.12568740489,9033.10416555853,17679.0201162891,20338.614393801,21114.9529169145,20989.9921645538,22051.0970623407,19620.3252016359,22766.6621788141,22297.5485541698,11103.1611336913,8981.03144145799,5559.17152531667,6736.64298200682,6808.26478176796,22678.2779537362,18137.1185628747,22373.5016674231,19337.4499521465,21642.698420541,7352.46015313755,24145.7614986644,24276.1165906624,16272.5225397089,6172.34220259069,10203.8681635613,5829.48110578896,22224.9583864067,21976.9879871707,22142.8726291062,22507.7974307211,21931.5202159094,6078.72794049208,22200.0341135518,22519.6305329175,21467.0318395269,6004.71115538548,15716.7516339244,7588.75392754204,20825.1075879617,21945.3111500506,22029.9276528559,22586.2545254874,21957.7215688283,5771.7470610253,21648.7726789371,22209.0698031672,6792.97463547671
,70,20407.3516025997,23329.0706483822,21394.758630526,21239.1697400115,22860.6999562238,21525.181433665,21071.7300089252,20313.2877316989,20987.5399872494,20668.2956547638,21147.8366595448,19705.0572000656,21905.0043405214,22276.2080880276,22991.2227241418,19880.0918311788,21114.3397958639,21237.487927389,20473.3718525924,21853.5540605919,22778.0517253464,19950.8605732032,21450.294916422,20860.8808654983,11599.5834704883,15821.6674491028,21403.7504820075,20250.2836992685,20999.4915753831,20893.4602830025,22040.0943345732,22470.2688283428,24019.2613991939,20136.3217801026,22269.7220906137,19609.6066134713,5365.18245225684,7094.8698882853,13983.6657415918,20139.1235439636,21483.7104263081,21061.5832876168,22719.1597792578,22252.9351350975,21937.4456196021,21581.0253577214,21870.0019388883,8741.07209757462,5559.06862199313,8878.41095609399,17463.4761614519,20237.1133169873,21038.1147683768,20913.2110364424,21952.7316032844,19560.4503123703,22646.872950256,22267.0964449265,10901.4509170805,8781.87656181603,5513.23318723158,6479.49344383655,6687.70945187166,22583.5856095907,17972.1316910513,22322.1058370866,19322.3378981157,21645.283187118,7206.91437794298,24076.9723640891,24221.9369845529,16125.9022001662,6061.76681770322,10055.6735734369,5656.71371267656,22144.9819310006,21943.4928224543,22117.2709117322,22447.5459430843,21923.0492710793,5908.44751610081,22160.2896572096,22490.0020403666,21433.2492058497,5904.93524449469,15522.2706351335,7386.12964454414,20732.0487765964,21932.3433099466,22005.7115795105,22512.1861127634,21928.8282869476,5663.66017810495,21544.2961042385,22145.3908020646,6542.80681167423
,70.5,20283.8570846954,23166.7663618056,21261.8419290505,21140.5047304446,22757.0705957286,21432.658888887,20974.6217936663,20221.1025300668,20891.4617720171,20645.4902108757,21096.319709049,19527.3007644303,21763.9853777128,22118.6308940342,22910.9193014836,19810.4830380078,21087.5941463719,21210.8513294438,20392.924096165,21792.8957405755,22672.673063105,19930.9763287734,21411.3894212705,20715.0192706832,11426.0685189056,15555.3833065133,21190.6583718888,20125.2682274084,20957.7893220285,20854.4801351092,21929.4765308964,22378.2868122804,23874.3012842242,20127.4015356261,22209.2236237665,19456.4456739063,5339.6207930984,6910.66376601033,13771.133652283,20018.8741712297,21457.5215918014,21005.2440313468,22622.0920432088,22162.2128327502,21832.7108013224,21465.6947443844,21761.4648437696,8554.0387354077,5481.69856427973,8712.71062162583,17221.9911249478,20101.9362377992,20930.6772351483,20793.9308409368,21820.9014582571,19477.2526319454,22487.7210351102,22201.716942061,10681.8333677417,8572.29810350374,5462.65057901217,6211.71009163773,6562.57079933814,22452.8670148242,17776.5801276721,22236.4201609055,19282.9690850372,21617.2416016998,7052.39997772181,23969.3038913199,24129.6056797513,15954.3566913612,5948.14257818633,9893.76862871244,5479.89520384539,22009.9250196466,21881.8658980579,22060.4239295913,22354.9217616711,21885.4522265896,5733.99232531386,22087.5239808203,22423.3791832765,21364.2769043649,5802.51634406492,15305.0161013343,7173.91290947713,20597.0167633295,21890.9010135827,21950.8005794897,22404.1872942821,21871.6128386712,5552.65557446966,21404.5079412524,22047.6756595903,6278.71489692488
,71,20138.1292641049,22965.3566412739,21099.6757693837,21012.1488836642,22624.9409168362,21313.0236038386,20849.9815635745,20098.3617107385,20766.0101297642,20596.1937392205,21004.5075173149,19317.7945059591,21595.2826016204,21934.2491439104,22803.9341543076,19717.890771387,21027.4868571076,21150.1899889999,20285.3668857361,21700.7892274612,22532.8643806147,19878.8413760331,21333.1086280632,20535.8711366802,11242.296310931,15273.6097964053,20949.2472303929,19968.8126114138,20885.1766440897,20782.683714629,21790.2709762096,22254.765213464,23694.3356868896,20084.2446353162,22112.1656233481,19281.779585807,5310.07101626457,6730.06034788972,13545.8194380968,19862.4785885801,21395.7579270262,20917.7258430456,22493.27172282,22035.5097042735,21692.5739555173,21314.7338704172,21617.4834225088,8365.9545790637,5404.60997938877,8542.3653665288,16962.3035844664,19936.2824382972,20792.6836352165,20638.921973043,21657.2989508711,19380.6195017538,22294.5051826021,22101.182854532,10455.2678513896,8363.90637687616,5409.71611844958,5950.77912347068,6440.32886119712,22289.0038014564,17553.924256572,22116.6378465482,19215.7761396164,21556.9131398121,6897.84464566925,23826.31724952,23998.2042816952,15759.1430438997,5838.27494767648,9723.66854039402,5311.45568473522,21827.7213355753,21788.8906644187,21969.5916801959,22227.1301251911,21813.4272104045,5564.11438228972,21978.9006389753,22320.7227278532,21263.8570881933,5702.74201132144,15070.1618518258,6962.88621891329,20428.8997493011,21814.1645513293,21860.8023171985,22260.9149217126,21783.4669213336,5445.61993142323,21231.4137208682,21916.3671565051,6019.06514555711
,71.5,19973.4650097486,22734.3116552004,20910.0474544563,20854.7612678222,22460.9556898692,21163.6111624547,20696.7405022208,19948.7358689174,20612.2690938433,20516.2105782631,20880.1962445737,19085.5328213047,21403.5855653322,21742.1449128137,22666.0351427067,19601.546913133,20937.8294281862,21057.4086699288,20148.5694653252,21576.6122311328,22362.3392925294,19796.4495411351,21219.6420297381,20330.7856153206,11054.8600884887,14986.4734263775,20689.1155304063,19789.11510501,20783.2108598996,20681.6401893087,21626.9849446613,22099.3588116409,23484.0556895059,20007.9266721336,21980.2531978745,19090.9300595176,5277.21374866002,6561.33228108426,13312.4426473832,19678.0843484123,21303.8339988358,20803.9469753512,22336.4047848282,21877.8061132039,21522.8910099218,21137.4010273421,21439.505038928,8187.56759095486,5328.86317248412,8373.93048298218,16690.5549150456,19744.0823700234,20625.7300122151,20454.1356743346,21463.8110076628,19271.0032243258,22072.501144537,21971.1597683083,10228.6259448758,8167.32947023782,5355.41924081679,5710.92221413383,6325.24409883732,22096.9006815187,17311.3883579755,21965.7097292659,19120.6764653675,21464.3096515332,6748.84580274275,23649.6423253096,23831.7857982476,15536.4800408586,5735.58125138112,9551.13629950066,5161.95910302971,21618.9103748044,21666.2399037283,21847.0858273009,22068.6462512486,21707.5341748463,5410.37301321411,21833.7821289139,22185.9890280958,21136.8355303472,5607.51001105721,14822.5107784819,6762.37519718529,20231.4323203909,21703.0771153167,21736.8325442034,22087.2171050244,21660.0532990629,5347.7401801298,21029.908104622,21756.2472683831,5780.71844266989
,72,19792.8020872256,22481.4548364486,20697.5794332609,20667.8777118795,22273.7849301718,20991.5980332939,20519.195108581,19776.3245024066,20431.4793907219,20405.9493481765,20731.114678021,18838.3262209656,21194.4178058988,21547.5933681373,22485.2171745375,19468.2253302812,20821.4825059936,20938.5378547086,19984.6600759992,21424.0731247676,22166.7322841722,19686.1147470811,21074.8064886854,20107.320635763,10873.5012185598,14699.9123042506,20417.2659464061,19593.0550073629,20654.7286687703,20554.6104728365,21444.4607861091,21919.9860216307,23250.0466868759,19900.3043069019,21821.0572860209,18891.3773539568,5240.92279420521,6409.85072728584,13077.8279541484,19471.7079964291,21183.3494107607,20668.6882864392,22154.6592077738,21693.9489894571,21329.8253493192,20935.3857379688,21233.2028552464,8024.76832299474,5254.12148130585,8211.34120486668,16412.8207664979,19531.3967649648,20434.4367257432,20247.5698343807,21250.9801878794,19150.969594238,21830.2909485205,21818.2468668673,10011.0730316267,7987.55990591385,5299.64109922487,5502.60127441161,6219.60342658879,21883.5253755251,17053.0835411671,21789.1258757386,19001.2953983346,21345.4639632047,6607.84557380152,23446.9132147548,23635.4039942293,15297.4633418237,5639.49207957925,9381.70855607909,5036.91329289823,21390.374583191,21517.9675426019,21693.9587462152,21884.4406492873,21572.5410980536,5278.88110046623,21662.5999291049,22027.7805681642,20986.8716276185,5516.32662292884,14567.7816320527,6575.81257025025,20015.4131623213,21563.3926020094,21581.5926440648,21888.0257790479,21505.0779508331,5260.12870805838,20806.0562129195,21569.1471485501,5575.35977320169
,72.5,19597.4435958704,22216.4197047976,20471.6651018923,20458.7281827319,22064.206601908,20797.9657326434,20325.3775510077,19588.6275201866,20229.0265324126,20271.9695247983,20559.5050664479,18580.9514068096,20975.5101298567,21352.3904100663,22269.0623711812,19322.7127344658,20683.7231454027,20802.177237275,19799.521614319,21246.7196597547,21954.440433305,19554.422614518,20909.970213967,19876.1481245856,10698.0875085407,14415.8788427608,20137.2439056793,19387.5299835898,20508.0007598443,20408.6343324996,21249.023421576,21721.4915222635,23001.4992503793,19768.2705567455,21639.7328511147,18690.0743864602,5201.67276859574,6276.91531902609,12843.2061554396,19250.3931982446,21040.6665821405,20517.1636753538,21955.7587706613,21492.2471838781,21118.2940415916,20716.8239770217,21007.3152777174,7879.8229948651,5179.33526818424,8055.08979387222,16133.7188052626,19306.2411500964,20225.704760268,20025.2725831528,21024.0337031286,19024.9546436909,21576.4244333102,21647.483448126,9804.18019413426,7825.84078274194,5242.06402559904,5329.74856100043,6124.85724136942,21655.0574668392,16784.7120468198,21595.1526239145,18862.1016618125,21205.8436620369,6473.95802975695,23225.1266358559,23418.0203010907,15047.7072657322,5547.50911691765,9217.71711646269,4937.49313143946,21149.9953649312,21348.2954732316,21516.9553581691,21683.6564402055,21413.7993485932,5170.72495016165,21471.8695347316,21850.4203422368,20824.8576240162,5427.45228747688,14311.4520018671,6403.13314916138,19787.5811980273,21399.3290800957,21402.2589560503,21671.1261069877,21328.0609866868,5182.83204771798,20568.6654741136,21362.0298634821,5406.60566875451
,73,19394.3422540738,21945.3167771407,20238.4352367154,20234.7702664828,21840.2700878609,20587.2358868978,20118.9911003263,19387.8369416278,20012.3527118071,20116.8140538471,20374.7325822252,18318.8267823441,20749.588594714,21157.649657727,22024.7472845426,19172.2430621574,20532.3540926249,20651.5484167059,19599.4864994621,21048.8800043021,21733.1628676713,19407.0296070825,20733.2930097021,19641.8093807572,10528.5968623452,14135.4628263399,19851.8491134812,19175.5718808296,20347.9605893043,20247.3120789504,21046.1540923668,21507.0831260827,22744.0886709763,19618.935380254,21444.5080242836,18485.0986045294,5160.37947875645,6160.80847070381,12610.1786915882,19018.1863162596,20881.4385122602,20353.2918791348,21743.3947355441,21278.8027033024,20894.8529126901,20486.5826743803,20765.6776715469,7746.72945855329,5104.50090244611,7904.47527714999,15857.3839498812,19071.8254693758,20002.7752983814,19792.3388911799,20790.5546711467,18893.8244246595,21317.2662494698,21464.6496713905,9608.80612848309,7680.34596146939,5182.67965780138,5191.35123563573,6038.55992797687,21416.646468165,16511.9171373496,21386.476353021,18707.0701252416,21049.1725075348,6341.35218080643,22991.9546067035,23188.0339170261,14789.8075250798,5457.53445671947,9059.1238720371,4860.20966389324,20901.8360145847,21161.9006610158,21323.8574748856,21472.0308473059,21237.4096093219,5082.21437797427,21265.8058829347,21659.9125513593,20652.4293638197,5340.40883081465,14058.4083695613,6238.2366314439,19553.413903411,21214.5109727393,21203.8741183244,21444.8191180622,21134.1663086313,5112.94184298403,20322.7065509653,21141.9105309654,5272.85899190317
,73.5,19186.7875244023,21672.0121383011,19999.6089534759,20001.960913791,21605.8585403117,20366.8066329232,19903.2273177022,19178.3304263238,19785.8912009396,19946.0967816638,20183.1346916672,18054.1121560256,20519.9118014163,20959.5446416093,21760.4244546946,19020.41465234,20371.3353340113,20488.8532037008,19391.3465048059,20838.6572486387,21501.9825084523,19248.8482419199,20545.000552276,19402.8343916028,10364.4232205952,13857.8075091585,19562.382634336,18960.1387517466,20179.6338649021,20075.8405403647,20838.3225916433,21283.5082430086,22481.8947441243,19459.0310517662,21236.8573962529,18262.79531771,5118.46625438839,6057.9275757176,12379.8252661449,18776.8147503428,20711.5464749609,20180.3359318186,21522.6233802985,21056.6542790368,20665.8594964758,20250.0576265601,20514.2269370606,7623.65062717804,5030.79968140765,7759.35732463886,15583.3992421341,18828.3449789096,19769.6049245039,19552.2114899292,20550.3563443809,18737.3356777992,21052.3280956402,21274.3876637673,9423.5461540632,7548.42536865391,5123.77072269947,5081.59144543386,5958.37114949611,21171.7079775497,16237.6786007643,21168.9089912687,18541.926039865,20880.5585333981,6203.19101711155,22748.9664821325,22950.3958923934,14530.673482457,5367.92680798436,8905.26206191163,4800.0476559659,20648.5904156119,20963.3622074876,21118.5926040739,21252.2076122022,21046.2054146376,5012.09070064195,21051.553348478,21460.9073020048,20471.4798700089,5256.21825792405,13808.617830685,6074.88756237886,19312.8907187539,21017.8898842132,20993.8104776745,21212.623582824,20925.6821613259,5049.15423964206,20069.157108171,20912.8295494719,5169.16368199246
,74,18976.8766029397,21398.2905430245,19758.0304002038,19763.7509643183,21366.3417923287,20141.3676951025,19683.3710850267,18965.0896567995,19551.9184297582,19765.2687044014,19980.2886044509,17791.157910102,20285.3694185207,20736.1032671316,21484.4698258576,18872.3189620934,20201.5439881252,20317.4055869464,19179.2840343427,20619.6149189548,21262.6416864819,19081.793301736,20348.7789384368,19161.785336263,10204.6751003866,13583.1684948402,19270.9952794403,18755.329651837,20005.4438834542,19896.5244923028,20630.0991885498,21053.9766811647,22216.6335051455,19290.4397856748,21021.5736906493,18026.6781855903,5078.50696896139,5966.36234702291,12154.3053788685,18527.1283738317,20532.6865602943,19999.5675641756,21295.4545464986,20830.1260472267,20432.3769026556,20007.4882571907,20258.5583750691,7506.40347973765,4962.19989602974,7620.31903278539,15312.5374982919,18578.5480103257,19529.854266971,19308.142217967,20307.1364452166,18559.8127833406,20784.5821455971,21075.382622872,9247.69334940851,7425.75449873024,5068.74486903831,4995.10235601768,5883.93960628855,20922.1714239376,15962.9839351324,20944.2188998702,18370.8640191045,20703.4198675454,6054.52291707941,22500.1341714679,22706.6991598992,14277.0744123888,5279.01917507309,8756.2601904283,4752.38046812375,20391.5093793567,20753.292392643,20905.1137904762,21027.6910257903,20847.1222888038,4955.81692698948,20833.6386735859,21254.0675375145,20285.0628686807,5177.47871070094,13562.4600181238,5906.71642977733,19069.181876437,20811.6744854875,20775.9725926105,20973.8018538027,20710.547543873,4991.3873450268,19809.1893628732,20674.2255160538,5089.31169296112
,74.5,18765.2980172535,21124.1869468997,19515.3331215376,19526.1201433602,21118.9617845849,19909.7030231631,19458.7202179496,18746.9499948329,19314.0526091804,19578.0471501072,19768.5329385178,17528.0481021467,20050.5243183503,20491.9811873077,21207.4694033807,18737.6889197881,20022.935393888,20138.9556085005,18966.1999139445,20393.9186579269,21020.835719701,18909.2093203667,20149.131540253,18918.0021985876,10037.83215124,13312.0522475875,18979.1751092242,18557.7975603569,19826.5119839924,19711.1628207765,20436.3893747546,20819.8654032893,21951.3525727783,19114.3679415712,20801.4636034899,17778.3936428731,5042.59971310726,5884.38072442881,11934.0123208449,18271.8718476195,20347.4553933595,19811.7728069345,21063.98913445,20602.5492336929,20195.1012299692,19761.7204044834,19998.1478780924,7394.29010703795,4902.19739633037,7488.53822015298,15044.6201169202,18323.7643214376,19285.3289178111,19060.2472858583,20060.2184337607,18364.6284962716,20514.9109953132,20868.5252920969,9078.90273654377,7311.05948608036,5020.34735144011,4926.94334110897,5814.7810724616,20670.387987082,15689.9846596441,20715.8017866401,18195.6924760917,20518.352993971,5891.84302678502,22248.056568871,22460.5953284792,14027.7652897734,5192.99887491863,8611.77804634859,4714.07218769861,20133.1297402825,20537.2233435388,20685.5842941131,20798.9191332823,20640.9860141689,4910.61496858927,20612.8344327538,21040.463692399,20097.3899424823,5108.57968201104,13319.9089039357,5730.40753262742,18820.8164844871,20595.6324734749,20552.8837900936,20734.0933326358,20491.0918849529,4941.58636211268,19544.4117120964,20432.1120883972,5027.76759092154
,75,18554.0749570299,20851.8902814003,19269.2618916498,19286.7242139003,20870.1737695969,19675.0516352767,19229.0632623718,18524.0570150526,19074.5525688439,19383.2732832511,19553.4746103717,17264.0915016255,19815.8190639007,20230.4824698545,20933.4542035579,18614.8146982769,19838.5647274024,19952.8108736083,18750.7835080421,20165.8792445366,20775.8825180611,18731.5561130731,19941.8945353388,18670.7606582176,9867.33113550716,13045.4338449367,18687.2364304977,18365.3232199276,19640.9059850877,19520.0935856342,20255.4073278738,20582.4461177418,21687.0598832515,18932.2491391595,20577.6921400386,17518.0848272344,5011.74257952718,5810.84077694199,11719.008161359,18011.9746189025,20155.5026250073,19618.5665517284,20828.3901496451,20372.1434641642,19957.7975679965,19512.7597434883,19734.2640730618,7286.66834547496,4853.26546630877,7365.60817546122,14780.7934581337,18063.1092134684,19035.3099346896,18809.4613472312,19809.0281143076,18153.4738508885,20242.9581691041,20656.5971588023,8916.67665107954,7203.351681836,4981.42662560052,4873.81764927975,5750.52650911685,20416.627874615,15421.1891078403,20483.0427202272,18016.383266786,20325.9734152172,5716.04769733674,21994.2649445382,22212.4427721501,13782.7968743482,5114.10675491266,8471.93558067425,4683.31685545685,19873.0225571395,20316.2688063809,20462.2665798927,20564.3108053383,20430.3303182992,4874.71273686697,20389.9128034259,20823.2253924178,19904.5123783481,5052.99944135128,13082.4930846802,5546.59209886617,18569.6003496158,20371.1986744976,20327.2199942489,20492.7787292642,20265.8119348481,4900.1591987046,19274.3824905108,20187.4329546797,4980.92897919481
,75.5,18341.9572297084,20579.8901823355,19020.2310719154,19046.6219528038,20619.1511867317,19441.4091217612,18999.975636231,18299.9800165095,18834.0882423584,19185.9701442594,19334.9330626549,17002.8200592523,19583.4165409144,19953.273272764,20664.0198956471,18496.3625794268,19645.9458583262,19760.930799109,18533.942059171,19940.0683806877,20526.6633698646,18547.4249080588,19727.5510485732,18421.2549130549,9692.63601793393,12784.0507110379,18394.6796097392,18175.355890528,19448.8225997968,19323.3823857985,20087.4065444213,20345.564502059,21422.6346907799,18743.7074795662,20348.4114310058,17248.5646900428,4986.54490124737,5744.58647825943,11510.1785441576,17746.978903667,19960.1691664004,19420.9728781147,20593.2258354872,20141.5995232394,19719.2414716148,19260.7209525603,19470.4672479569,7184.93869302087,4816.56931161213,7252.03303391847,14521.2278041684,17799.0570452264,18785.0164832807,18556.3907133383,19556.0202759872,17930.058577399,19969.2000660551,20439.1204881473,8762.03247490686,7101.74353647205,4952.09843793408,4832.45441833572,5691.25441694983,20161.8860046253,15155.3217923883,20249.0539356254,17835.0733552224,20129.7596758287,5532.60918345608,21738.9522509351,21961.430631067,13542.3083827636,5045.19105504701,8336.95097755849,4658.51842237184,19611.4194448864,20092.3715042769,20234.5673082606,20325.0567600305,20214.72784201,4847.18362143748,20164.1517038081,20601.8609824596,19707.6173452872,5011.14677990183,12848.0902579069,5360.69410161568,18318.2304354396,20144.603217811,20100.8525793824,20249.8281083163,20038.0572324352,4868.77287327982,19000.0346756773,19941.7599891393,4945.44000000912
,76,18127.6442877511,20309.3572806405,18773.3071432825,18807.5781759794,20368.0132861841,19207.660387696,18770.6990589602,18076.1659054156,18593.2675363297,18985.8814178628,19109.4333676328,16743.5876022029,19353.1308934994,19665.0587527549,20395.9757452009,18379.1294637973,19446.639706414,19563.9708452428,18314.8128054055,19712.8164125924,20277.9656623842,18357.5299434203,19511.3064261035,18171.3161837407,9515.68287905534,12528.4946837333,18103.6031017354,17984.6848673584,19250.8819764426,19121.2223692211,19929.1174755242,20107.1535242548,21157.558555772,18550.0334589407,20117.8409232736,16979.4406824589,4966.42473423115,5684.47557070796,11306.2570284576,17477.5429605025,19758.474631859,19218.2773590305,20354.9840022216,19911.3288073742,19478.4561867248,19005.2917767617,19207.2612011563,7088.35560879025,4790.37090639161,7146.63750504179,14266.5069896903,17532.7426775449,18533.6982634153,18302.1698537499,19302.142165128,17706.6549797297,19694.1206236361,20216.1320707514,8613.56705891889,7005.36888505627,4930.56204841626,4800.33536722973,5637.00989245593,19905.6707743986,14892.3733662396,20012.0734203991,17651.6479112948,19928.4798738905,5350.58067408302,21483.544943952,21708.8713041815,13304.8861563619,4988.19738119226,8206.50136242416,4639.10927450184,19348.365775715,19866.13931903,20004.6684340175,20084.7671560628,19997.1748445919,4825.85736730307,19934.9982191916,20375.4140154437,19508.2185454731,4981.08720329736,12616.9553961866,5180.58169372671,18064.3225584036,19913.3457766719,19873.7944941284,20005.5165855786,19809.9629774508,4845.85212810315,18723.0703675608,19693.5885540537,4918.88994842443
,76.5,17913.0546574215,20038.0223917344,18528.599573735,18568.7126599829,20114.6251292506,18972.4652106106,18540.3819762779,17849.5881551243,18352.3064987267,18783.2053661642,18883.5605736778,16482.4055454571,19129.6485572158,19378.4197764341,20129.7193591047,18258.3856227293,19239.9528540061,19362.7790960945,18093.9256199584,19483.9417146432,20031.4690643351,18163.2681512829,19292.8097706713,17922.9620563073,9336.09108318199,12279.3662888018,17814.1181788705,17765.2252194847,19046.7539568268,18913.6198642424,19775.1325148853,19869.4575686526,20893.9722341049,18352.2218396456,19884.010198827,16712.0474017889,4949.97323340078,5629.2423108615,11105.9133413313,17204.0296263543,19549.5199354407,19011.195710138,20116.245143823,19678.7433468428,19233.908858732,18749.1052025561,18941.8406727838,6997.75255297479,4771.05815027173,7048.64518994774,14016.8687355613,17264.7411410017,18280.9528989051,18046.4395241527,19046.3100988846,17483.205242574,19419.6562024512,19989.1554533791,8471.04567437392,6914.68404547141,4914.3444441592,4775.05766799649,5586.51573724804,19647.1513669071,14631.5883735356,19773.0837890547,17464.2523794003,19723.6217976138,5180.54405390161,21228.5050921423,21455.4009083924,13070.8749610316,4943.69837986855,8079.96390440645,4623.58856913951,19083.9612961288,19640.2728803938,19771.5852807909,19840.8201383187,19773.6271023925,4809.12920148554,19703.1139972339,20145.996051726,19306.1613830087,4960.77587675233,12389.6725926122,5016.3447151119,17808.503649826,19682.2753903425,19643.5970122972,19762.8865397484,19580.7660763965,4829.35439189096,18444.8837788915,19446.7363273447,4898.94370819625
,77,17698.4429437843,19768.6870416084,18285.4054137131,18329.1859395417,19862.2227613882,18738.6231958365,18309.5077507827,17622.6607618917,18110.8083279863,18576.5024321361,18656.3368517421,16221.1038142021,18911.4625544685,19094.3633581188,19865.1960637234,18110.7897293544,19027.1627059932,19157.9730078622,17870.7961793415,19255.2229954248,19781.8838047402,17963.100970571,19071.2553621408,17677.9321673292,9160.50599754628,12036.1358840027,17525.9008152678,17522.0908957613,18836.9776789429,18701.5229249811,19598.2160322821,19630.5784999452,20630.7511393581,18151.2717803335,19647.1720193316,16446.6936749451,4935.43339699061,5577.28168705701,10908.9269816336,16926.2078513461,19333.8916436028,18802.0834121465,19878.0316283256,19444.1524830047,18987.5664744291,18494.612489614,18676.0673879567,6910.68839205653,4756.57206490616,6956.07011945649,13772.5105456303,16996.4251857223,18028.8553624534,17789.7030933981,18789.3238542795,17260.4966314856,19146.0055555247,19759.5010525339,8334.37940268022,6828.43871668305,4901.28478062984,4754.01478871975,5539.54267826977,19386.0777883557,14375.2118766351,19532.2983560221,17272.7612767713,19514.1629611878,5033.05635469027,20973.2442037078,21201.2877650969,12840.9711428495,4910.95303514947,7956.90578534586,4610.76563637226,18817.2436222382,19412.3441248099,19538.8449686727,19594.8904988361,19545.9624219614,4795.55704047753,19466.9117413584,19915.5301324067,19100.4730536699,4946.40078530326,12167.3067160694,4876.71371138636,17551.227280214,19451.4189500809,19412.2889376382,19517.7077433444,19350.4612225375,4816.48924796103,18165.9455170189,19198.5340471459,4883.84880243821
,77.5,17484.677903258,19497.8252906127,18045.625127432,18092.0860904314,19609.6433973971,18505.9896683135,18079.9674561934,17396.0634277006,17867.9191126413,18368.4760890887,18426.4331595871,15962.6782912366,18700.8009505193,18811.6172785155,19601.3512502884,17939.5224432309,18808.995002345,18948.8501090478,17648.6530226341,19024.8983414981,19531.2213643324,17758.9177942324,18849.66443561,17432.8496397814,8987.16268324016,11797.6932361352,17240.4918751953,17257.7351078507,18623.9131821588,18484.6046856097,19401.9048386719,19392.7308357533,20366.4914569077,17948.1296570565,19407.7493180022,16184.7309282294,4922.24991890308,5526.67910180052,10715.6444287663,16642.4634589765,19115.1787179654,18589.4268034081,19641.5210795784,19211.2360615717,18738.0545464208,18240.7827963039,18412.2567318434,6826.39084340715,4744.47155243175,6867.22172826122,13532.2957778803,16729.5020201765,17778.8017373869,17533.3811432924,18534.8885510264,17039.2184163685,18872.2879178035,19527.5329851243,8202.98763685167,6746.20751833282,4889.36754511466,4734.86343042216,5495.06101397791,19122.9822618969,14121.4557032574,19289.9131655736,17079.7311183216,19302.3013058272,4914.10881487805,20717.3847821486,20947.2656616145,12613.6895874698,4886.94590333213,7837.049640758,4599.15895296436,18550.1588268804,19183.5989860295,19305.0903844931,19348.4229255317,19313.649332202,4783.87596902739,19228.4234533995,19681.5956309863,18894.0472798072,4935.32613481562,11947.994598308,4766.85809827396,17292.6634103288,19222.851814899,19179.4921601619,19271.9185735686,19120.4237085295,4806.04547475613,17888.5241801683,18949.9969309566,4871.09413838291
,78,17271.9153066246,19228.2004520083,17809.219864155,17856.1415836752,19358.4832948779,18273.4038731461,17848.7943809234,17167.8941024002,17624.322256967,18156.9322083852,18194.9615848388,15704.7047531598,18499.1757732299,18531.1646824475,19337.8463020244,17749.6653718999,18588.6085908188,18734.8274128929,17427.2742833262,18791.2247680302,19281.036814166,17553.3624800623,18627.361283547,17189.051006975,8815.77151732726,11563.6774049741,16958.8139555572,16975.0623268937,18407.2020839862,18264.7032712805,19185.3181245769,19154.6887407542,20102.2631884714,17741.8811448572,19166.6361557324,15926.975455628,4909.15856617852,5476.43174525667,10525.014486233,16352.7671818952,18889.8605835605,18374.6302157206,19404.6485102261,18977.2440433064,18485.9648425379,17988.3142590745,18148.0449244488,6745.18004646976,4732.78940799953,6780.62110897101,13294.4707119458,16462.0812252415,17528.2190060967,17276.7799764468,18278.1541833929,16818.4731097583,18596.7202989535,19292.353364092,8074.42150354557,6666.8213514587,4877.84966569352,4716.55083315028,5452.58239087283,18856.1560466878,13871.6548834685,19046.7415193462,16884.9146817986,19087.0541263477,4825.84838449018,20462.6317907718,20695.3809473805,12389.0213400979,4869.58796695395,7720.21333792061,4588.42509929387,18282.3123683468,18953.5195318915,19070.8515692632,19102.0085110995,19079.0309404084,4772.92962635878,18989.1733917307,19446.2495280994,18686.6861766375,4925.69295604561,11733.5989798111,4687.02357834535,17027.9267267107,18994.5420285804,18945.3922735702,19025.4958709467,18891.4226360668,4796.04339347494,17612.8818400748,18699.4758460263,4860.64685135591
,78.5,17060.9775374221,18957.5613028926,17573.4695246179,17621.579981715,19107.1100508446,18042.5591868722,17615.3019075117,16940.1395459785,17378.5465363907,17943.5172628254,17963.5113255485,15446.5579998211,18316.5095293316,18253.225857103,19076.981315804,17543.6333235478,18364.4084849764,18517.2079471982,17207.3712949452,18555.7914283538,19030.7912704101,17345.2559282541,18401.8683100966,16947.2363055611,8643.8935292963,11333.311644794,16680.6052008785,16676.5071838144,18186.8523866493,18041.9933945256,18953.6092577381,18917.9227209705,19839.2644604335,17532.3033511499,18922.5605793674,15671.8687107435,4895.80596119843,5424.67199030091,10337.5422974468,16056.5958912342,18660.971625442,18158.2759977739,19169.6021101935,18742.5316984025,18233.1349211781,17738.6166735301,17882.8218611366,6666.75026307593,4721.60055351573,6696.91327192906,13059.13945209,16195.782842104,17277.6022077047,17020.4646483239,18021.2005872974,16598.4483145201,18321.5167811053,19054.8200930467,7949.29770145603,6590.56250539339,4866.66761010839,4698.66726996665,5411.56873662009,18585.3826647019,13625.1143060134,18804.5564879724,16686.9696990843,18869.283090121,4764.88904885635,20207.6050084246,20442.8490213602,12166.5899069271,4856.18010089895,7606.44880834569,4577.45729359736,18012.7440823871,18723.4610712223,18836.0413398142,18854.5527153923,18841.4553471489,4762.62445615515,18747.9454416286,19210.7641891005,18478.2440966272,4917.32523683769,11523.8055891207,4633.28372035203,16758.7390922045,18769.4918249456,18710.6450670883,18778.2039262096,18662.815045896,4786.51187106301,17339.3729645084,18448.7811948248,4851.19086690039
,79,16850.1778161984,18687.6045420375,17338.633515322,17388.5630318973,18858.8323925297,17813.5165788026,17379.9840074762,16711.7759592802,17131.3637358645,17729.1332278718,17728.9618132508,15188.0236495458,18147.3726664123,17976.824557708,18816.8420249918,17324.2088087088,18136.6280684473,18294.2928581719,16989.6295000063,18321.978922199,18778.6095685301,17134.9000214101,18172.4491346344,16706.2021965835,8469.45513525781,11103.6131414365,16403.7567544769,16376.0939229757,17963.5900951248,17816.1938539597,18709.4099935489,18680.1816308567,19576.2231534325,17319.8884090134,18675.5187299504,15418.6041672133,4881.68581926029,5368.33165914752,10154.2088586355,15752.3403028861,18430.2495261677,17939.1552645517,18933.7975893431,18507.9064354565,17984.0716631359,17488.4594824893,17617.9687179752,6589.92358222495,4710.88265031397,6614.58203626966,12826.2304985186,15930.2419813497,17028.4879524818,16764.7572133686,17765.1399711377,16377.3611272492,18045.074654812,18816.4638132103,7827.20954547101,6516.16710108793,4855.85054838567,4680.94654166093,5371.62648462233,18311.6523064622,13383.0308806215,18563.7128245761,16487.8673437662,18648.9264683711,4724.9174636774,19952.4897036358,20190.4288083979,11945.4434637625,4845.07623558712,7495.19440659802,4566.95078907462,17742.1010647305,18492.6927307474,18600.2328516742,18607.8806171054,18603.9779169682,4753.10382256691,18503.5950713237,18974.3904375066,18268.1679478707,4909.67492357007,11317.7048773045,4599.09473947708,16483.5828955367,18541.6253897568,18475.4547042942,18528.2744582917,18434.8424127455,4777.16216943287,17066.0280149624,18194.8140860075,4841.16176564275
,79.5,16641.4021840347,18418.2713074392,17105.3206884263,17156.3141072532,18611.653481637,17584.1594994497,17144.6377314985,16484.3498543344,16882.2060862487,17513.7802813149,17491.6015652058,14930.815604673,17989.0178054032,17698.7569174923,18559.3520994814,17103.7230079569,17906.9941707126,18065.1769515419,16774.6735740474,18088.0263025716,18527.939110492,16922.1367778656,17938.7187238517,16464.6460024525,8289.16113308937,10872.9564297667,16128.8001764215,16071.2214114652,17738.5079221841,17586.3441961787,18467.0924845344,18443.4028250787,19313.6846708387,17105.4621956922,18423.4740686003,15168.5807472278,4866.99887080482,5304.41805868318,9974.68896171542,15436.8863880777,18198.7346272692,17715.835016319,18697.8208600523,18273.3616091355,17737.925899866,17236.6660960625,17352.2391754115,6515.47354212766,4699.93037751712,6534.09716083782,12595.4139502789,15665.0656307685,16777.758812361,16509.3742599569,17509.7541152805,16155.2590041327,17767.0164255061,18576.0372280036,7707.04822433469,6443.52883624988,4845.48654065059,4663.53804652373,5332.35274156064,18034.3535729429,13142.394179356,18323.6806834131,16288.198061359,18425.9471358879,4698.46920831338,19696.7590146475,19937.5031203732,11724.7814465148,4835.09256741399,7386.51071381274,4556.75345496796,17468.3936719394,18262.0776209721,18360.8228133174,18360.6126126825,18365.2528225654,4743.75806928834,18257.5348530429,18735.1060698926,18062.3428879509,4903.10974184497,11114.2520946645,4578.01309827966,16204.7725193392,18311.7459020345,18240.82750191,18278.6791759237,18207.4150927963,4768.57396394371,16790.2112868362,17939.3200031245,4830.23365715375
,80,16434.1709381492,18151.1007188856,16873.6597351416,16923.8880757361,18366.0644437832,17355.4488992929,16906.9371511306,16257.9915919418,16631.2918290533,17296.1171768585,17246.7113909717,14672.3567527686,17838.2633083054,17421.959616037,18304.2215020036,16880.6695819556,17674.1407465574,17833.2796025709,16559.005076342,17854.3441920301,18278.8143867279,16705.3172065873,17699.0405436917,16228.3288476567,8101.03956067324,10638.4900253981,15854.5761327312,15759.2757406963,17509.5970863599,17354.62031947,18225.5387760141,18206.9278307683,19050.1036826623,16886.747886913,18166.1380912466,14918.5748872656,4850.93359945945,5231.58715721173,9798.63883501776,15111.2083276288,17964.0142606396,17491.0079361923,18461.0405529605,18038.6004034831,17493.9329077499,16984.9567030919,17083.0122262457,6443.43886820504,4689.13604006957,6455.17864613145,12366.9133047605,15398.1762696453,16527.0608589324,16253.7529530024,17251.9521023559,15932.6494524388,17487.9203767837,18331.3282492773,7590.01264070906,6371.70967691025,4835.46706805203,4646.67334213854,5294.11031973719,17752.8644922638,12904.6344416601,18084.1051573957,16086.5046164335,18200.4973672045,4680.94369502027,19442.6731616182,19683.4305612614,11506.5122121221,4825.76074173851,7279.8256855494,4546.86963127757,17188.6991330834,18031.8181559101,18119.9508218787,18113.0039187767,18125.4038345006,4734.79770444006,18008.3783053885,18495.4822436292,17867.1027598839,4898.22842659541,10914.4107816686,4564.07998200181,15918.6909124416,18079.8677759276,18004.6538338164,18028.8024668136,17980.2477369422,4760.41973760677,16510.2426597649,17679.7472708022,4819.1703335942
,80.5,16227.8889912733,17882.8903295058,16642.0742298709,16692.774487972,18120.4261165417,17127.1042294756,16667.2825963897,16032.3598771179,16379.4093986524,17077.4051730795,16992.1813449272,14414.6265091603,17687.676126446,17144.9868433646,18050.9959232115,16654.5810722556,17436.9427712748,17598.7502521198,16344.8715477105,17620.1787355102,18031.2611780571,16483.7279824513,17454.0016473987,15998.9969989852,7904.78021173856,10396.1787146105,15579.8943693769,15437.3817446228,17278.3082669788,17120.3049676539,17984.806829172,17970.4312959024,18786.1098178397,16666.2730164782,17901.9928048962,14668.0621554486,4833.49056024868,5150.2245012506,9625.82930140191,14771.7896471251,17727.2028317879,17261.6048672778,18224.1588854001,17804.9594168071,17252.974779357,16731.3070537839,16811.9982555036,6373.42471920924,4678.67705342004,6378.52729069247,12142.3568647338,15130.3747227107,16275.5081712106,15999.1900453265,16994.2961149442,15709.2114589449,17209.402355161,18083.3475532481,7475.74595665091,6301.54070563922,4825.60992312265,4630.35494035288,5256.86980912511,17468.2709561426,12669.4649021897,17845.5808535758,15881.8384265636,17972.4480642557,4667.15610132491,19187.105282654,19426.5265006479,11289.0837236032,4816.2625778176,7175.06879833983,4537.37804404874,16900.5712372583,17801.5652851361,17878.4122735401,17862.6415097341,17883.9552672558,4726.43369094077,17755.3573351277,18254.6433628904,17681.542687388,4894.93321226662,10716.7609018627,4553.65552097317,15626.1184045786,17846.4136923574,17768.9920011752,17777.6018337005,17751.1730508679,4752.64713973982,16223.9698583207,17415.5454495398,4806.70764330246
,81,16022.6037457092,17616.1763702521,16410.8479518622,16461.5888634498,17876.2930579604,16898.6281713808,16427.0232213167,15804.8192484715,16126.3669665694,16855.5650865944,16728.3442268312,14156.9346685359,17514.5527216263,16867.690720202,17798.6882970241,16424.0261609399,17196.4091975446,17360.5146912311,16130.019678762,17386.7068190278,17783.9582925095,16258.719660135,17203.8954888861,15779.0816615796,7701.69268408315,10142.3635869489,15303.5203090133,15104.2349397979,17043.2357120279,16882.2924807797,17743.1256339156,17731.6132266609,18517.362650961,16443.6497952978,17628.8950495116,14419.582342088,4815.01772826264,5063.60357447315,9456.35936735483,14415.8760727676,17487.1312537415,17028.5552485622,17987.2464094479,17571.8060077521,17014.9254105399,16474.6997384125,16538.3585317056,6304.54755338296,4667.87993187767,6303.03721306509,11921.5461936432,14861.2915567668,16023.8032006651,15743.7410625241,16736.1856503905,15484.407956936,16928.794207636,17829.8742258453,7363.8973397253,6232.47505562358,4816.16539679636,4614.60263813911,5220.54862103719,17178.0339545632,12437.4597245333,17606.1370857965,15675.6640824928,17740.8870585359,4655.35951345795,18930.9836895903,19168.1830382811,11070.6080078985,4807.25933658863,7072.37007880436,4528.69490657393,16600.5232043716,17569.3126758121,17635.1287803014,17609.806047318,17641.1328641544,4718.10945124987,17498.3810521764,18010.5101674749,17503.8142766218,4892.90856925718,10521.5996128683,4545.07023725461,15324.9492508923,17608.2866493953,17531.8910451401,17527.0194113705,17520.0729993753,4745.04143232614,15929.7704174195,17146.6004062376,4793.81977486483
,81.5,15818.870987928,17350.6764024714,16180.6512176708,16230.8444739933,17631.5729372611,16671.3472643554,16186.5477676122,15577.1269003461,15871.2884354267,16626.5633245715,16453.8293397015,13900.935726617,17321.1778420194,16590.1994555349,17548.9039406477,16189.0615683833,16952.5578103192,17120.1372455662,15915.1526572159,17151.5603235204,17537.0122986315,16028.1556237923,16946.6942455302,15575.394696143,7496.68767502593,9873.89644247464,15026.893307686,14759.8261264474,16805.1535337268,16640.9937578877,17501.4055302358,17491.8432604385,18243.2591280715,16217.3449526414,17347.0000608017,14172.4582443484,4796.4948361883,4977.44380026532,9289.01835247434,14042.0113877851,17243.9561933214,16792.2348986834,17751.5441762178,17339.6475306336,16775.2863715699,16215.2559321488,16259.3525667049,6237.286974348,4657.60802153181,6229.94432558475,11704.1869824351,14589.4555527788,15771.4408838793,15488.6867617043,16476.5761718243,15259.5934107408,16645.7138475458,17569.5410289448,7254.01258706155,6164.98040533054,4806.94418258619,4599.42293134949,5185.2277306943,16880.9796279939,12208.6427622101,17365.813501452,15466.5676246888,17505.4375505836,4644.98541512729,18674.5142247721,18909.8156741528,10849.9407102744,4798.66490391915,6972.11292201071,4520.00181093444,16279.0370336819,17333.5838991111,17390.1906265905,17350.9480466216,17393.4539866323,4709.37360967756,17237.6028068894,17763.4719964476,17332.1941056534,4892.00144007848,10329.9615026399,4537.53175361459,15010.3774884218,17370.4666911,17295.7304362372,17276.7268513696,17285.6032079284,4737.84421096173,15628.4878079454,16875.1310508221,4781.82454143253
,82,15616.9391206235,17085.1754883918,15952.5945884827,16000.5049357415,17386.7797518282,16445.4538179675,15944.5178517038,15347.302787114,15613.8310654449,16391.3274629064,16165.046110099,13643.2095778684,17111.052303278,16313.9516818037,17300.4649166096,15951.4719946384,16704.505987657,16878.6836575324,15699.126827924,16916.8997792888,17290.7884118048,15795.0640048373,16682.3403527048,15388.2355526646,7294.46218467312,9586.03835068364,14749.6892871453,14406.3967258812,16562.4544542877,16398.482400454,17259.52060961,17250.5780500342,17962.014036296,15986.8777196319,17056.1849695102,13924.9398574163,4778.56868724554,4898.75783081098,9123.5725583156,13652.3856268181,16995.3100247538,16554.8554329119,17515.559586933,17108.0242297369,16533.5399744791,15951.2626304492,15976.0468406737,6171.78412998794,4648.03385386758,6158.42933320172,11490.0714305048,14314.1806408888,15519.4935844141,15234.3534739737,16216.5833869535,15034.7049217919,16359.6623334255,17300.8514923258,7146.3177008535,6098.98216537335,4797.84162554366,4584.81013393528,5150.69734889052,16573.3699579825,11983.3835120175,17124.3878997255,15254.3764066962,17266.9440641305,4635.79259354601,18417.9445135077,18650.0331145511,10626.8961896903,4790.40165247916,6873.81613073704,4511.44918591203,15924.7476842423,17093.8096471732,17143.2593874809,17086.4718122715,17141.4518282948,4700.79382937472,16973.4410443569,17513.5028315527,17155.3153767874,4891.21893978317,10141.5037163742,4530.30266039781,14670.7499312049,17133.3466551318,17058.2294550166,17025.2105649113,17049.6278960436,4730.34175459521,15323.1066157656,16599.1967038927,4770.52232414845
,82.5,15416.6628433964,16818.3759460091,15724.8365138877,15771.5651356314,17142.1752988141,16219.9270220928,15701.1910893622,15113.5282497562,15353.700145509,16148.5828150345,15865.2720993254,13386.4002656242,16884.6712569049,16036.2901516833,17054.2786989025,15711.038376809,16452.761304408,16632.3804496461,15484.5847219024,16680.2005763366,17043.9671573844,15558.1169498459,16412.6862557185,15210.6629237092,7097.62381140382,9276.59754388257,14470.9228192897,14048.0907468587,16318.0288567746,16152.3794673589,17016.8592746079,17007.5061308591,17675.9590836612,15753.219563441,16756.5923923811,13679.6418443807,4762.21858086774,4833.28227028357,8960.32560588906,13248.8422896744,16742.4042389739,16314.3534702256,17280.3216912788,16875.8653587235,16291.5851899662,15681.3042328372,15688.0040133243,6107.40553526863,4638.59025469748,6088.59754069538,11278.3136106055,14037.8695992084,15265.6074026881,14980.0071102339,15955.2032498079,14808.4964034051,16070.8869020642,17023.7781607137,7038.65021027778,6034.81798775794,4788.87823912406,4570.67841008442,5116.57612384071,16252.4398641228,11760.6056941495,16883.7985736167,15037.8558787883,17022.3362044835,4626.3405892663,18157.7676922775,18388.1770129421,10399.2898579963,4782.3310065767,6778.06428567394,4502.90504950769,15531.6497140992,16849.1673059498,16893.0987607753,16814.6444977655,16885.1814526076,4692.16581321162,16705.0527156443,17258.603586211,16956.9216010046,4888.60961749834,9955.80448778979,4522.89856383918,14302.1092745883,16895.5055306598,16821.9508311219,16772.1352392781,16812.36143862,4722.77293501971,15014.01080258,16321.7910979061,4759.78231355373
,83,15218.6691245105,16552.0993990179,15500.5655927178,15543.0459067933,16898.2523427472,15994.9469494977,15455.6454190108,14876.1249156798,15087.5180433843,15895.6293089777,15553.8351854499,13127.8402524491,16646.7984866376,15758.0240413882,16809.8550247618,15466.7072964366,16197.1776249941,16382.7512805795,15267.8163880498,16444.8116344828,16795.1650381957,15316.5070103808,16134.2960243945,15036.6662127679,6905.23754086987,8941.52185920628,14189.240816324,13690.323131023,16069.2516726712,15902.3305235191,16774.1375823611,16762.7234075898,17383.0347120588,15515.1919053822,16448.155066466,13436.2960119862,4748.25699474119,4782.63260638897,8799.08375819654,12837.9231505761,16487.6493699372,16072.5303534242,17043.7273095566,16643.804845034,16048.1680947421,15405.6986632967,15391.7783604179,6043.88933011133,4629.38267750234,6019.72938609793,11067.4246870491,13759.4805032569,15010.1380051588,14723.9525168159,15693.0155106806,14580.413204871,15777.4655047153,16737.5624448126,6932.21998204695,5971.83290360385,4780.27417167196,4556.73954689071,5082.7341378269,15914.6667292819,11540.5854578232,16641.7298216813,14816.8664438101,16770.9843862004,4617.65100448304,17896.3419523203,18124.744481482,10167.4970088484,4774.7538186719,6684.22767310715,4493.98058304494,15098.2021207096,16600.9150119318,16638.5781000819,16535.4905834807,16623.6269538714,4682.92525511575,16433.0877981491,16997.8848747735,16738.4715884377,4884.36075380313,9773.77592430939,4515.53414041084,13902.0788080091,16656.2711781214,16583.479739759,16517.0400556531,16572.4427442832,4715.06033166226,14704.9329005858,16044.0564943046,4749.80236235839
,83.5,15024.6125916495,16285.7629568118,15279.2330367617,15315.0389922898,16654.20166554,15769.8525246531,15204.8317384873,14633.4179929411,14814.6443983154,15633.9816819902,15228.2861793666,12868.2169079663,16409.2136304432,15477.2269130953,16567.2323702451,15219.1208484407,15937.4377581341,16128.9028005228,15050.1678339114,16208.2549606636,16542.2725666113,15068.568765793,15847.0656980306,14856.3704994326,6714.66223925401,8569.94402644281,13902.8284011512,13332.690639939,15818.5501904458,15648.8756957806,16529.8195104717,16515.5364841972,17083.9906018454,15271.4037636593,16131.2845136091,13192.0918527066,4736.51170689027,4745.27366702744,8639.39662957378,12421.7427275799,16229.3577646921,15826.3886647711,16804.1445014341,16411.9707015417,15800.9391258174,15120.9177606753,15084.8428290398,5981.88411050586,4620.62163499792,5951.91326208916,10855.5624889139,13475.0018721495,14749.5959253509,14464.5328486317,15426.8586165547,14350.5073302948,15477.7689002013,16441.516106281,6826.15745063057,5909.6341023031,4771.43678595185,4543.1325067041,5048.96524934183,15561.4747662848,11322.2942251467,16398.1632737642,14588.1771721431,16510.8668521864,4609.00640221168,17631.2450905514,17858.9129189445,9930.92208279444,4767.03609929589,6591.97047592803,4484.90184042218,14623.0122006574,16347.8480982332,16377.0195693807,16245.745892616,16353.5999111824,4673.56926590531,16156.0942660273,16732.3337954859,16499.2930658458,4878.82990463714,9594.68659243357,4508.14720913901,13468.7370490415,16416.4779072227,16343.195530667,16257.8653928138,16330.1310394532,4707.61353964073,14396.2878029352,15763.7906649002,4740.41603105805
,84,14833.4027495304,16018.4816600345,15058.8021123098,15086.602323772,16410.0763304837,15544.338192121,14940.440870107,14378.7731390524,14527.3738055858,15365.7054221727,14889.5881711649,12604.1315517816,16170.7224156386,15192.7372892302,16325.3564410071,14967.7089725915,15673.5789875087,15869.368303964,14827.9076522842,15965.9541679031,16283.5699572968,14814.3516103179,15550.1300976811,14651.4105093368,6515.30491449813,8154.25542584922,13609.0054758674,12972.1177022444,15563.0906793728,15390.991888501,16280.255617278,16263.1565461378,16775.7377193016,15023.2064289687,15802.6973756962,12943.9504356883,4726.26546817356,4717.39302602001,8480.96439987484,11998.1298705832,15965.4801068639,15576.1123904379,16560.4457401039,16176.4738937184,15549.8779731537,14824.9796184484,14766.7121418038,5921.34290022512,4611.64709808797,5883.21857932634,10640.4318746656,13179.48071201,14478.8954928755,14196.1600575649,15154.4751258649,14116.1907195138,15166.8112840479,16131.4864665662,6720.94967009042,5848.85438924541,4762.60185451067,4529.78537905663,5013.70979900878,15187.0118069881,11104.0685638478,16150.6295034085,14351.3070593342,16240.1802228085,4600.16617577538,17359.2717439928,17584.898853568,9690.89063199147,4759.18268139813,6500.73944396968,4475.97573518242,14104.014066331,16088.1839512155,16106.6949811731,15943.4174680066,16074.0904067916,4664.62195157937,15869.8581057411,16457.9862148993,16238.0518009371,4871.9276416583,9416.85848675528,4500.71860584751,12994.5327067686,16172.6381954922,16096.8345782409,15992.418916966,16083.862815311,4700.19166130729,14086.2778280518,15477.6129787064,4730.92457847129
,84.5,14644.0409882702,15749.2811418131,14836.9618086101,14858.4905011605,16166.1237708219,15317.2431747363,14655.2464156009,14103.8375614405,14215.0259163081,15090.5184019037,14537.4077279253,12332.2728118609,15927.7488850087,14902.9699810729,16082.6482826538,14707.9054886115,15404.4125495051,15602.4859727033,14599.8747942522,15715.5980712699,16012.5882823049,14550.42122543,15239.3569562603,14414.3911076767,6293.78178942327,7698.97840900143,13304.2297117664,12600.5333340756,15302.2889865536,15126.0540997121,16023.476282002,16005.0716223937,16456.4232181647,14769.4023686658,15459.4016575271,12685.9091293815,4716.89538788372,4694.14488698678,8322.74320748831,11558.4369224162,15697.3295929193,15318.3263672681,16311.2988483823,15935.9454231641,15292.0925858743,14513.5292016906,14430.1180248332,5861.96695301887,4602.41464665831,5810.95476482452,10421.3857111712,12860.1810142296,14191.1819876985,13912.0586302898,14868.6306670124,13872.0785965894,14833.8215594678,15805.4219637113,6615.50325694631,5788.9251033531,4753.74085243531,4516.37256172128,4969.93898533519,14784.4100009699,10885.3624132424,15897.8525357311,14104.087004685,15956.49997156,4591.3099231364,17078.0116510683,17301.021792403,9445.2154989014,4750.92560541124,6410.4019764419,4467.0563378926,13535.7694710122,15820.7054473423,15826.8094564453,15624.9757747466,15783.3756257159,4655.74139016048,15568.630606769,16173.3844992715,15957.2531214626,4864.40835655871,9239.25839135848,4493.31725925339,12465.6037178451,15922.425244707,15842.7898073482,15715.4150742373,15829.4891053223,4693.17102246878,13768.656632035,15184.0455380792,4721.17137605304
,85,14455.3548529588,15478.5365491107,14614.0831846363,14627.8025484379,15920.5872402529,15088.2470776387,14338.7721412805,13798.9716660789,13863.0352667894,14810.211935858,14169.5875254974,12037.5450914213,15678.8944939157,14605.558981269,15835.1684462155,14440.6260357172,15128.6207577289,15329.5637486246,14363.5306926897,15459.7138351269,15728.6709996204,14276.6813066947,14910.566193915,14144.4804815205,6045.10494823254,7212.86093336084,12985.3245492829,12209.9929919073,15032.2857914821,14853.639637107,15759.0483548046,15737.6074803588,16122.9003105532,14508.0668711883,15094.5801042058,12409.6863549383,4708.03404538961,4671.18956389319,8161.42591068383,11086.7315885906,15423.0937833367,15052.3648536545,16054.0360333487,15689.1742110706,15025.5338278227,14173.0429932926,14061.9428959918,5803.54024685382,4593.11071634654,5722.56687881288,10197.2434065701,12496.5299058343,13878.3494512374,13602.3493978266,14560.785888551,13610.4387024501,14460.4280226172,15462.8268928474,6509.81779211602,5728.90447652153,4744.7956271286,4502.88869739038,4912.91614684339,14353.1676987745,10664.3163952369,15636.3346661853,13846.5695275103,15661.9534442203,4582.64428407546,16789.3853116951,17006.533185968,9187.76336262158,4742.82056155889,6319.52770223325,4458.6508212675,12916.6289884426,15545.386907716,15536.542864724,15291.6071237593,15482.0703398132,4646.82357601016,15250.7175550946,15877.1307538832,15662.8169723113,4857.04729886013,9059.99605409874,4486.20999019113,11869.3110829661,15666.3971347322,15578.955056768,15426.5746476222,15566.1834886177,4686.48768586444,13429.6191750665,14871.6204768632,4711.53432318718
,85.5,14265.9833775869,15201.1582207415,14384.2640594848,14394.6908678752,15672.2015834773,14857.2116648669,13972.0533524567,13444.091612932,13446.3900246381,14526.25592843,13788.1380237592,11700.6581366572,15420.478383435,14295.8528467926,15578.4414340934,14164.1773829661,14844.6392012406,15048.2488278541,14119.744621349,15192.7082788005,15430.8710694702,13992.641692392,14566.81664142,13839.6912673378,5772.30261171787,6709.78031181085,12650.0684132163,11795.5799871234,14753.667785542,14572.5647083727,15484.4085532438,15461.1110567144,15775.1530603196,14237.8005784075,14705.9480818512,12112.7118253243,4699.19696765347,4647.28667575162,7991.54206736814,10566.1453640138,15138.7051222337,14776.8082028005,15788.4122524923,15433.2001726562,14748.4408363491,13780.3859609609,13640.7273067295,5744.9728434164,4583.73360990781,5601.96674241429,9965.67606083936,12059.255391515,13528.7721709159,13255.1359386175,14210.4075628212,13318.2116809065,14006.831179643,15103.8386067891,6400.03187544081,5668.32329886118,4735.63340740545,4489.61653199367,4843.29472812951,13894.1089538903,10435.4737944097,15366.9362739285,13577.8094914615,15355.6417059078,4573.25022880507,16489.9751982694,16700.875514269,8918.21367037669,4734.8218615937,6227.23757497851,4450.82573226545,12250.4477212265,15261.2914277144,15237.0694587639,14946.7542478481,15170.3859339158,4638.62775476486,14912.9680578715,15568.1667077752,15352.4346773662,4850.02275169157,8874.79738878555,4479.35754344464,11205.9424805218,15404.0305957336,15307.2163513909,15126.3209910226,15295.948423948,4680.19361590623,13034.3305040708,14522.2151859822,4702.49445457621
,86,14072.209386965,14910.5328907821,14143.7281333398,14157.3039648361,15420.7991757606,14623.4715827985,13531.1273176467,13014.2860239069,12924.3677163673,14235.019445615,13394.4413957862,11282.2727678838,15146.0178793616,13968.4293631926,15306.8464903532,13879.1096461362,14553.2567555712,14758.0511085934,13868.4855329011,14915.6720727454,15121.1046502549,13696.784659426,14206.303722727,13500.8749863875,5485.62687616266,6226.23312901099,12296.4017580961,11362.270035652,14461.9993928469,14280.7120125094,15200.8329255605,15177.6605975766,15412.6098456271,13956.7179751508,14290.7947522984,11793.9432386638,4690.26019235372,4622.84610190319,7798.57364592314,9995.94895108728,14844.0306483863,14491.4233448844,15514.2552564794,15166.2064582044,14461.6343918008,13316.5898900124,13135.2484572379,5684.62682113479,4574.61001324267,5449.86195021108,9723.4239424369,11523.9821701097,13136.8659694681,12863.7805650371,13801.0419006203,12983.8348974892,13419.1951820263,14729.6878810508,6276.35700604334,5606.67589167671,4726.70204257153,4476.21066302883,4762.38768207356,13405.1168410493,10194.9383251868,15089.7533354129,13298.5938149894,15037.4014584494,4563.58685991289,16181.844412299,16383.4492080194,8640.65684233395,4726.8672903085,6131.32985308982,4443.35819653701,11539.9206995606,14971.5072841521,14932.1752515196,14594.0875607155,14853.5280796889,4631.08707291589,14553.7444461182,15244.1583778253,15025.8796818072,4843.11366329239,8679.78086744633,4472.33929179809,10475.4068735356,15135.2017252338,15028.4134907687,14814.1071067416,15017.1330542218,4674.17228803084,12539.9619577945,14117.1572529211,4693.08183542344
,86.5,13879.623310594,14598.0102624634,13886.0397280908,13914.9995102173,15164.1663149512,14385.449148765,13011.806391599,12503.3542633862,12279.9381880197,13932.8935424061,12988.3934520221,10747.8735826958,14849.1101089591,13612.9079280675,15012.0545413539,13582.8362244128,14251.8740770113,14456.3473020141,13611.6154961777,14633.8353769398,14801.8185827239,13382.9669270924,13827.413437759,13136.264159252,5205.66591126969,5794.42900026589,11918.2445290424,10918.2240032421,14153.6781884171,13972.552791403,14911.7242355045,14889.6453000304,15041.6785572205,13656.8637752177,13849.1198146244,11454.0299053518,4681.61289501079,4599.86547576975,7553.18378010618,9382.05445884416,14534.5356512278,14189.7700147367,15231.1238879481,14891.7536835768,14166.6983040282,12782.6286798427,12540.3767991762,5620.38547228236,4565.228596051,5270.37404882651,9466.09320719751,10885.5348054142,12700.0523582853,12425.8656581872,13328.1010463947,12606.6465007992,12666.6436985048,14342.5082725964,6128.12771022177,5542.86671059783,4717.73726350877,4462.26215049928,4674.03885336827,12898.0948486179,9934.79497813196,14805.7932784952,13004.1655962534,14702.3156565636,4553.80881068966,15867.5301769844,16058.4583357962,8356.09177958168,4718.77624178305,6028.92385267179,4436.37137053325,10800.3807065324,14681.2697217068,14627.092966789,14243.9121253849,14537.8580812224,4623.54579552728,14174.0977168685,14902.921314844,14681.2437101219,4836.24191097264,8468.49367809654,4465.22971094762,9690.9390085466,14862.0190091528,14745.6933575583,14493.289912574,14732.1755478635,4668.47243736268,11927.7801965083,13649.3978353003,4683.44067894886
,87,13675.1989144232,14248.8652985032,13601.0190207894,13666.4450761225,14901.3851738922,14143.4299089946,12416.1868752526,11914.2136571409,11514.4849770875,13604.928949943,12566.231534734,10090.4050258246,14519.7291094633,13214.5610003758,14682.7923101266,13271.8792693189,13934.3321157448,14137.0271596925,13349.1462279565,14344.8224043257,14477.6132040351,13034.8000781245,13417.8783174979,12751.5067647944,4961.00169760516,5430.74863588851,11504.0870947009,10471.905274989,13817.7024324592,13636.4725392746,14617.4146643197,14594.3055725534,14665.0400301811,13322.4474635702,13372.977054883,11100.3125541486,4673.38131577661,4580.0143290729,7248.03648943166,8737.71007942888,14197.0224737179,13861.2163732521,14937.1188968843,14608.1134098788,13864.4265821727,12184.1948775361,11864.4343916791,5548.52618362484,4555.87669852278,5071.5546585674,9180.99371592548,10145.6391805511,12216.5183076186,11939.4078853029,12798.5071357802,12192.3098340357,11756.0613699769,13937.2725410002,5955.86774422365,5475.55663342428,4709.12397494873,4447.85758232083,4593.26731573464,12393.878419359,9645.21369593414,14516.5410298272,12682.0710891041,14338.4635536237,4543.57834488717,15546.9073815395,15727.1260394303,8067.37212792226,4711.06747372419,5915.9555764857,4429.46303891754,10082.0418021837,14393.1466522593,14324.5856536937,13901.7200694735,14224.4264607099,4616.63541003481,13767.9130701765,14533.637151333,14310.3492964067,4829.38520853251,8231.87852411966,4457.87025328424,8910.54265032603,14585.5864687899,14460.6076312272,14169.327166484,14441.0565729625,4663.14213628935,11199.9495817602,13116.3456409589,4674.07136507926
,87.5,13448.5314490379,13847.238784967,13277.1363206131,13409.4826845236,14628.4294397971,13893.1270773995,11760.2233084218,11264.0693646621,10650.5332428065,13211.8622982086,12101.1263155609,9317.4438428249,14145.8807420446,12759.2973563533,14307.3107510228,12920.8587000924,13577.6074411966,13774.7253941562,13071.5223131424,14037.5499520289,14135.226790165,12608.9546198202,12943.8989816643,12338.4230796329,4767.9051633956,5142.69764427644,11042.9741294264,10017.1336850025,13419.2581984421,13237.292266624,14304.5233893496,14281.9501185152,14266.7476089544,12921.8072509158,12831.6938895924,10730.3964238277,4665.09136170798,4563.77951214869,6883.09533538327,8091.64275089038,13802.910532024,13475.8576699472,14617.4020717765,14299.0280898384,13535.565458402,11536.0765517236,11124.3109404206,5464.80689406253,4546.65679750937,4880.32125463017,8855.24111420723,9331.29034564153,11686.6247775368,11407.603934909,12224.832284653,11747.2913911788,10720.6287105953,13476.5988075232,5759.24921949641,5403.08917740113,4700.82572543384,4432.632539628,4530.25024090365,11893.3357224786,9317.62652729704,14216.1681691052,12301.195176384,13907.2550338801,4533.06206693681,15202.0886114144,15373.7593365871,7778.69739571659,4702.78406193927,5787.84040139866,4422.30401743093,9407.49053827169,14100.0149607529,14019.1663772394,13554.4987839448,13898.7273362557,4610.15287022425,13300.1862992994,14098.2174251039,13879.741728386,4822.59309277572,7958.80405456064,4450.3712765368,8177.39713969299,14296.4790016417,14165.6362258114,13829.5873238921,14130.8071061282,4657.87643842375,10372.759899529,12514.058112629,4663.42445488773
,88,13185.7217140489,13388.3297036185,12909.385836792,13138.9424322816,14340.6840944275,13628.3392900499,11079.8305622459,10590.2790022798,9744.42690787997,12693.1051160641,11547.771726104,8470.87974880173,13717.6812826722,12240.3821291271,13877.1258640724,12476.1716967754,13128.7704198617,13315.4279180014,12762.0630443325,13696.4240447305,13751.6105216041,12046.2213627828,12346.7469423598,11882.8268090201,4631.2229511854,4935.47423620314,10532.3257001644,9529.82324582124,12897.1979961485,12711.8725659418,13949.7184158712,13925.4773032253,13807.3395069144,12412.9207918991,12187.9273741117,10329.3736742272,4656.56951805574,4550.51996924735,6469.31842390711,7472.82450115579,13307.3712414132,12987.968017044,14247.0931950867,13939.4151810347,13146.7716992767,10874.407463928,10358.3342834872,5369.57347408073,4537.52303023161,4730.83415276472,8487.09505170002,8500.10559211657,11101.4786481924,10824.345948502,11637.1012539966,11287.0299165439,9641.9641731164,12895.6894889577,5544.40772326101,5325.07574010333,4692.33094698192,4416.27645562799,4484.12452162729,11396.4271581534,8953.04317329921,13894.9906287281,11809.9921569791,13351.310989554,4522.90399684769,14804.6445846796,14969.2849504092,7481.32188429153,4693.58572652551,5644.98075432262,4415.18402683228,8784.01550211958,13793.3548906188,13700.9500177327,13178.2805842356,13541.4320194205,4603.78567748462,12711.6374310303,13541.0763536689,13337.499548877,4815.62655498477,7650.20555689945,4442.56428968948,7508.47076630085,13985.7200577661,13850.9817176237,13453.4656576602,13780.5581749968,4652.6636588815,9500.30235320316,11848.5126656819,4650.88957851037
,88.5,12852.7113366426,12849.4924522251,12470.2327522135,12839.7846827638,14020.1986400318,13330.815547117,10418.4929589285,9937.96051205733,8882.028165377,12009.7171913508,10849.6900880301,7632.71657819069,13203.662902648,11635.8742542855,13357.4334634717,11880.5318952149,12528.3394869653,12702.859487742,12382.8166518317,13278.6195165927,13284.4172669378,11314.5110481407,11580.4823195638,11354.356075756,4544.78141576151,4791.5898566017,9956.82591277856,8971.81953243469,12203.7085911065,12013.4834175895,13510.5780540937,13481.4931183267,13235.12237444,11763.9626267008,11395.3419444122,9865.95855996286,4647.80409415277,4539.20527440767,6032.93341947343,6881.65118163554,12653.0530052832,12339.5059571026,13782.5201966074,13485.8840358637,12649.8460526511,10231.2647387615,9624.41836573613,5264.02668695494,4527.96207492514,4624.47654051383,8070.57843623331,7709.874464296,10432.8394957814,10168.0539490662,11059.4034461436,10817.8022581353,8634.3246184466,12146.067420776,5332.49260358381,5238.17519842009,4683.55842526221,4398.21892744323,4453.48721772159,10901.7374045957,8546.05519769303,13525.3488455679,11166.9797323518,12620.2761300693,4513.16878465439,14307.4023605265,14469.0478871718,7150.41703653783,4684.16146065006,5488.40348147742,4407.79698293787,8227.4380995491,13445.7712808834,13342.2967466807,12735.7620641346,13113.8123127298,4597.03647661146,11929.962112065,12799.0367371852,12612.960398505,4808.06820818957,7305.68875873255,4434.91459151199,6925.20903936624,13624.6920618599,13489.1395918794,13004.7743310042,13351.7102024595,4647.03882203522,8658.78120976673,11126.043847913,4637.43932225596
,89,12349.9006218811,12163.0697271651,11887.4389139216,12460.0864818889,13616.3696684663,12947.5005805618,9778.55847047927,9311.78411661688,8110.10466979824,11145.1339881769,10005.9406741887,6878.16523078982,12523.7316017065,10896.0298683334,12662.4917159369,11100.934909353,11735.4955587875,11894.843028216,11845.8747163592,12685.9784334649,12643.5825436208,10407.3481050053,10644.3654504636,10703.1952993203,4496.86967746702,4697.48866404687,9290.21689031215,8346.51145826067,11313.9141213408,11119.0846143116,12906.9502831593,12863.8483872724,12488.5452642415,10950.3827391979,10451.6635219355,9309.41727375506,4638.59480718208,4528.38674141106,5631.75462266633,6336.75817759299,11794.7983202617,11491.8697307123,13138.2006973408,12852.0430895614,11965.9625726751,9601.02909103193,8933.84886445897,5147.7694783175,4518.66542783562,4557.98595059246,7588.07790387845,6991.71813153847,9685.02197430682,9444.2759976867,10480.4083718837,10314.3310887354,7771.75523706048,11216.4892390381,5141.59205600431,5136.61468722763,4675.03922008694,4379.31793123075,4435.99530201132,10373.4349716331,8079.8376859628,13033.8301729298,10360.6499057715,11696.5674211168,4503.31772189499,13616.8842129543,13781.6597411685,6777.3626460945,4674.48441867604,5316.36213540126,4399.57099360942,7746.41068383523,12988.3643738484,12869.8816710822,12140.3234048112,12541.0474156171,4590.66714459136,10953.6195430337,11850.5106197697,11686.9848818114,4800.26018920805,6917.41880770731,4427.33774348389,6452.5916566819,13136.9896566224,13006.3618944194,12398.9801618062,12750.6006669277,4641.18319712331,7896.14623142146,10349.5985367814,4623.25043264065
,89.5,11579.8363993303,11257.0584999445,11075.8082849021,11885.2698525001,13006.6337521021,12365.0118786964,9131.86300226118,8687.1260756078,7436.55880905897,10115.4055159937,9035.96607999076,6233.32292767009,11598.5756364748,9995.86377389864,11717.762409049,10134.8376570088,10740.8666938238,10882.0846521428,11077.8189882896,11838.9752231806,11751.1054217961,9352.94682784387,9572.70073437734,9882.16372019664,4470.66771298747,4639.59517859026,8525.5309814443,7667.88705255414,10240.8750625872,10045.173412291,12038.3219717565,11979.7656411449,11495.5846148385,9985.0301467464,9385.30532310572,8622.99410746865,4629.08160753117,4517.23941205163,5283.91174447525,5857.02094935637,10735.8570732685,10448.84755646,12247.363602054,11965.6401536145,11046.7438054216,8970.84065240303,8279.92638626723,5022.26912154926,4509.33294153037,4526.15444192014,7048.58014926044,6380.35125972241,8862.88238088708,8656.96774920056,9847.09788971422,9720.67004443697,7061.59077614482,10121.2614568149,4970.25550520255,5021.41891533217,4665.92944257335,4360.30423858901,4423.94999226855,9764.83992639416,7547.77759052826,12336.4785335142,9412.57226137237,10598.3171604344,4493.92313653221,12671.3749033079,12833.0863861967,6359.02484675212,4663.86668071847,5132.18901178711,4391.43317659627,7300.57298629653,12339.8059166079,12195.7103724352,11338.1089583873,11778.7844156051,4583.9320848187,9808.97174869458,10712.3741823666,10574.3149224044,4791.85051135317,6485.51693026802,4420.11718222964,6066.88300322686,12440.8632957045,12315.4673019977,11562.3792197555,11907.8111620341,4635.16910803273,7227.95948790167,9518.86904505171,4607.59370321317
,90,10559.0755858564,10170.4501897223,10061.3463401483,11068.0477022217,12123.5474685821,11523.3393421186,8451.16789481531,8039.32855736109,6854.3191292372,8987.50636695554,8004.99738975135,5725.53734646251,10459.876066361,8982.3374683374,10556.9996982894,9025.90891075573,9581.27993485263,9704.14026867814,10094.9961379911,10753.4619262008,10634.7785827542,8235.19057818846,8440.7767031507,8922.01728906561,4454.05174595575,4606.60800873139,7708.45342206487,6974.68990065737,9054.09140176882,8863.39667677535,10927.5491477046,10852.6196121507,10298.8312493803,8918.22022245285,8277.68595070076,7836.1597376229,4619.74583264082,4505.84210325459,5002.67291325914,5444.97535489279,9529.88773245886,9267.91549296579,11130.6734160756,10848.5324113418,9933.16485136496,8336.93016762897,7660.30528768828,4898.74340046359,4500.16591851657,4514.64044718345,6488.98609349305,5885.4767890508,7977.17827974066,7815.47773866109,9114.59153433951,9002.16778497289,6487.21708517009,8932.7048032755,4823.67032796735,4899.33171856609,4656.76695171278,4341.89732761437,4412.0890417194,9077.79578909615,6974.92318322823,11407.3583791277,8382.04130847409,9393.97679108684,4484.79172265382,11500.9705949283,11650.6772644059,5914.42586727534,4653.40074124516,4950.28246856421,4383.31383834482,6884.77587576657,11471.8914734278,11295.918271117,10335.2411818055,10807.160009131,4577.06430197541,8578.25404954864,9457.28761751279,9342.92355672997,4783.22280959233,6042.22553379373,4413.0682481492,5755.46873263978,11508.9248663848,11388.1700608334,10516.7184067571,10837.5641017574,4629.22507942332,6667.56107064128,8662.18922421676,4592.58150966678
,90.5,9324.11857722029,8935.5316810422,8872.08687953361,10019.1855125792,10973.5054917651,10430.0867201016,7725.6026585591,7359.17723222305,6340.4404504742,7876.27501183385,7006.48678955237,5340.45449859829,9146.15886409234,7892.66454118428,9218.98811797587,7888.89236417763,8365.17896491357,8470.66182246233,8937.5615537862,9473.81925216003,9351.32631847271,7175.73168591806,7365.86638523965,7874.61930280634,4440.89547352879,4586.71478913999,6867.63980472328,6327.1719299596,7880.58832923864,7705.41638346141,9632.06905401189,9542.24494822308,8989.63169472425,7839.36910950263,7219.38545479427,6995.68133373912,4610.49127320548,4494.36714809922,4787.78750718921,5100.39795500311,8274.35088154611,8047.650428241,9843.99442627118,9557.06550996341,8703.10366945122,7684.98941164957,7066.56301659912,4780.50705562302,4491.00445940089,4505.54889098594,5929.16945482876,5491.12698302685,7088.32443881779,6977.29309689606,8287.58841266382,8174.68250974116,6019.26876176922,7781.19878378782,4702.45232497674,4775.07491625898,4648.40866506861,4324.87926223325,4400.85008231358,8320.22465907595,6379.40032629475,10259.3887338585,7371.49584421489,8196.50243507016,4475.86047401848,10170.5221459055,10297.0485742281,5472.60469415734,4643.25356259968,4775.8307081395,4374.61213178734,6496.3643982614,10379.5637296732,10175.4793926202,9170.59127480265,9652.01899934521,4570.1483496975,7395.31556558964,8206.48251282367,8105.41855956606,4774.30549623739,5601.81936612271,4406.29642710459,5508.64952682337,10355.2751357362,10240.7429813379,9310.2055743922,9583.80492415479,4623.41715640014,6207.95699210414,7817.59330986516,4578.24303997183
,91,7955.16996457617,7627.08469520053,7583.43116947621,8779.99111058426,9599.65740635801,9129.80245929807,6957.80526142123,6648.03518424572,5862.1057137929,6876.20638617963,6169.29422272735,5045.38409665873,7749.16504650264,6804.20501663563,7799.59217503928,6847.2977276992,7219.87159772059,7307.65527521203,7688.05879608284,8093.50853098986,7995.51662695725,6258.87569254173,6455.12176784211,6827.56945983523,4429.49825532499,4575.46951752047,6060.259796257,5798.67293818187,6831.91306696712,6678.46917558756,8245.46642604841,8144.35492479559,7690.54071946527,6832.3890240653,6327.53421085556,6181.92752592299,4601.74262363326,4483.13483433551,4635.67965023745,4849.04336859626,7101.23407793776,6920.8139302896,8484.57159256271,8190.94891492293,7462.90993808278,7019.46096045665,6489.26863793881,4671.14526174841,4482.1235753923,4496.98616231255,5403.13861433359,5179.03468746292,6289.96497792638,6223.47238456568,7387.29926914473,7270.39239510274,5613.77441014814,6778.78946390707,4598.91656907254,4659.05134598798,4640.7059880778,4310.70340259791,4390.66613829971,7509.36068856689,5794.10793961171,8951.95061848004,6476.99250639345,7121.7078785417,4467.32307577961,8780.15867765971,8871.46338645037,5087.93679569698,4632.87593934762,4615.60403886733,4365.68500559086,6124.79435402816,9120.5451131535,8894.3498740114,7929.44169871217,8396.90759587158,4563.67569480263,6425.68044518765,7103.89565922268,7019.68156594809,4765.53367994433,5184.40027907352,4399.44905174635,5309.616284478,9043.03806009724,8932.1408506461,8025.69109516614,8235.57270362089,4617.99710337528,5832.2148512299,7036.99167426456,4564.67755878965
,91.5,6643.67717224589,6419.01873446394,6371.97507723704,7464.82647703007,8117.53967081383,7738.18722429604,6194.32619761644,5948.98424375929,5419.14502185366,6044.97040433063,5515.38751745109,4814.18759708263,6463.89282351481,5863.04109933014,6506.12548129874,5986.24823858571,6247.4772772934,6320.19181870377,6531.67403663333,6816.05757024307,6758.47418035762,5533.74118287468,5741.01219333586,5903.55687402855,4419.48006958057,4566.7523245596,5378.33945018886,5388.54443358038,5985.86419634691,5858.73868966984,6937.09004603678,6841.55030154103,6533.66573480558,5980.50193909392,5637.70106890377,5475.18005723741,4593.71251357871,4472.40228087689,4525.90601907786,4676.18388812045,6129.05768682157,5995.33719876653,7232.87198233438,6932.04705955481,6380.81567844706,6369.64599778677,5945.999947232,4579.00596788962,4473.58804007547,4489.13598784411,4974.54405212084,4938.42063916749,5608.56751980719,5577.18778620021,6472.03004675034,6360.81850821158,5249.4158823162,5970.3255664737,4510.73368174808,4564.8907934165,4633.35789905348,4299.00813205551,4381.69986635728,6718.74927320546,5286.65788707872,7642.25075533524,5749.98952093694,6237.21267081922,4459.76477122676,7524.08984430315,7564.95952055781,4784.73225222134,4622.23649500655,4485.23688593563,4357.34898636348,5767.19371224696,7836.14644773365,7601.83015244486,6785.45746337189,7196.07654405059,4557.38069766629,5697.86851307131,6221.31924821341,6151.63406782062,4756.37464754713,4832.78464727689,4392.32351642644,5133.72184514964,7730.14307023728,7617.41620383219,6842.42847778147,6990.06812167851,4612.95621357427,5517.31968262087,6351.75581465157,4552.2350411565
,92,5627.90461957671,5512.84049017715,5450.55107306454,6311.88094414147,6782.65060266046,6491.819850056,5525.57297681879,5345.61377316394,5047.34297776463,5407.26333459981,5046.48308296429,4647.1359774861,5496.42015939329,5181.59767438128,5536.60282052379,5342.94570918926,5499.98521344571,5560.71488892961,5629.5453093162,5820.22355156282,5811.0859218601,5009.75443985906,5221.92195385621,5217.47829410884,4409.97313913801,4558.95986520732,4894.15722353274,5085.70066309744,5364.93821630997,5263.34025589715,5923.40591769107,5837.64932604249,5680.1975293897,5322.10229343276,5150.73235270662,4961.42699656149,4586.0174767057,4462.28790212672,4453.32804352921,4561.05982798536,5404.40717742606,5312.86962254764,6241.55054186257,5943.2290131018,5571.26156781652,5778.75877412324,5466.71062903635,4513.74809929232,4465.35530830286,4482.03070377459,4673.66195418393,4758.02022426606,5079.52945928464,5073.55846519679,5662.06415211961,5569.90870473727,4949.22079735096,5371.9770513208,4446.1500621756,4497.76451902942,4626.92468247093,4289.5019197954,4373.78148441638,6037.01952594987,4910.71995642517,6508.76890995007,5202.32922339342,5563.8738085409,4452.90153185638,6541.66127078185,6540.06032519824,4578.9232972749,4611.83139802978,4393.87367299836,4348.71172627703,5453.07317706818,6695.78146091841,6482.04059768334,5856.07014329053,6153.57402533583,4551.33052709559,5207.27050287488,5576.40394353861,5518.51255755275,4746.87545448175,4583.74860837579,4384.94249188236,4974.22727573805,6592.27513947402,6482.05094242322,5920.98213696705,6003.90597280086,4607.52827048788,5258.45527058344,5792.31712201543,4542.21288402318
,92.5,4916.5624137741,4892.68623313081,4814.0939146893,5436.34739485973,5754.05952032148,5533.47954815611,5013.03156833557,4889.80030991852,4763.36237479105,4958.65431892141,4740.72175637648,4529.44228819416,4837.21900636331,4732.28723118339,4879.0150652094,4916.65176346928,4989.84044010297,5039.93535697141,4990.74919311618,5116.46222564777,5152.74680198324,4668.36497297704,4875.28523715855,4762.06528747983,4401.58540299639,4551.80335356606,4578.27835338885,4867.67738447164,4953.04436181366,4872.02695232891,5211.16117062876,5136.14481854107,5114.3088991218,4870.81585266416,4838.03451142043,4627.78264135371,4578.53874954171,4452.93330436936,4407.45686211647,4488.53455851228,4922.59738509112,4864.40806730594,5526.7850215435,5241.84652163887,5021.61785356476,5278.1181304578,5074.67991664194,4469.10972581375,4457.28372896369,4475.31639772808,4478.25811786027,4627.53313581432,4727.0189638589,4734.62211337282,5062.40340091945,4989.60117721057,4732.95550278058,4973.00998565633,4401.82177275365,4453.43858808056,4620.8092589855,4282.06471133465,4366.86362285776,5487.11531742877,4657.34485765882,5637.76787743897,4825.09915477424,5093.69554818009,4446.91106219824,5833.9071199465,5802.23963204599,4456.26512583688,4601.18480462177,4332.48772311205,4339.79814174034,5182.38382594766,5786.58792685462,5611.81152340723,5180.17456856307,5362.20000355763,4545.84505517132,4917.19648333372,5155.88372858641,5105.8763120973,4736.93989839427,4418.45206007315,4377.56277572481,4823.56690514238,5720.53218114858,5617.57084688609,5267.26298063337,5298.74153168677,4601.81694771304,5045.87078982812,5364.36396931885,4533.30749324192
,93,4490.17910865256,4536.71661777974,4445.09679747814,4841.81494049587,5046.32179161484,4875.80950668795,4660.71956465279,4581.37859423284,4564.78208036554,4665.73561182952,4563.19164011721,4454.14790506802,4462.17507193141,4489.39569443966,4509.15900406028,4658.0174743111,4677.00024237571,4717.93582156283,4597.20829674857,4684.29308503716,4755.64361227894,4460.58654118331,4659.62410635735,4507.28659760066,4393.69868966634,4545.1545882135,4408.45697724604,4709.61905382273,4696.25371582311,4628.52738594226,4772.36762985284,4708.8826964789,4787.37772602566,4591.85400917429,4661.52879920361,4446.859001872,4571.88451326494,4444.6523239862,4382.97877208782,4445.90661393681,4643.7334470672,4608.09577969788,5066.60346303444,4806.60949740946,4693.25695287299,4898.45249290858,4783.01699112258,4442.25074624874,4449.37148284158,4469.05650236379,4372.88991947415,4539.04179008338,4516.98971208007,4527.81399770393,4663.63632394998,4607.06610189384,4591.26078554284,4725.4076311277,4374.21107117021,4428.1307637218,4614.44100349102,4276.18264384037,4360.78163318269,5076.89700877094,4512.56171923513,5042.43157310866,4585.17590574008,4792.87171024471,4441.79071323456,5372.80102914929,5324.47025401463,4397.78866133589,4590.48525353716,4296.68034892223,4331.31968075874,4958.06194231231,5155.12257613745,5019.74945910403,4757.65295672391,4842.2448675308,4540.8683578464,4759.99107926595,4903.46453013247,4863.23393016824,4726.67680541402,4325.3059893899,4370.12576419921,4684.31429897571,5125.21469365597,5029.63135182006,4859.39318609352,4857.48170068815,4595.94586262762,4873.62174067486,5055.91972993136,4526.22939382746
,93.5,4305.11238381975,4399.31515073608,4299.43751703087,4505.74068807715,4636.75135504951,4495.47765025959,4451.33030655863,4402.38462598297,4442.91245390878,4479.54233578043,4446.06482058478,4412.57058067275,4318.05774655709,4404.73934122552,4371.4871879038,4503.70214783465,4496.04270644125,4530.07877729359,4406.42028779746,4475.30807712605,4569.4765934867,4338.85219396664,4522.81577135853,4402.2655400471,4386.4150027071,4538.62015737211,4347.4109146515,4584.41104004676,4538.67124826793,4479.21911277987,4557.02144819506,4504.19694754537,4631.44632752625,4437.85666402458,4556.39588123058,4371.89971388823,4565.46042256496,4437.56081248802,4371.59844047111,4409.82240356283,4498.1765931421,4473.9235775507,4810.02841694832,4584.09410554658,4530.24150817049,4638.0769452881,4589.79612638186,4429.34333100976,4441.77670110366,4462.81436886414,4334.13556514378,4482.81863333461,4394.78970046809,4405.47938210318,4440.64288498991,4396.85829391921,4511.47142651594,4569.37737702339,4359.75751652069,4415.19867815444,4607.99563633351,4271.17018877019,4355.171627286,4805.79288212114,4453.17604335419,4699.47559797393,4434.37547402084,4605.20886550164,4436.99268549511,5107.47069943051,5055.36553514325,4372.13555235964,4579.86464126469,4280.88079836073,4322.91291133429,4784.20245349161,4773.36508965996,4676.10307070847,4541.85334954959,4549.1394274204,4535.99091963874,4647.25656610391,4742.14999017846,4706.78492542613,4715.9865680485,4288.41659811167,4362.93484848318,4562.06043849156,4776.17380616345,4691.08562606943,4654.94377626993,4633.83958586679,4589.40122282117,4731.00249983088,4835.37759554595,4520.44318051372
,94,4266.19925575616,4384.21717203777,4281.7658713631,4370.05609995303,4464.72849461395,4333.82299248804,4348.4425045641,4319.09420162631,4377.87710649371,4365.88719044399,4371.79605157742,4389.45613971925,4297.92603288965,4393.75570869051,4353.59556640456,4408.42862635683,4392.11087467257,4420.58203617545,4324.52204109876,4385.94155255423,4496.52999787417,4269.393488211,4439.1807625164,4377.24165721741,4379.3253914872,4531.96802896102,4337.45264267299,4488.68722714377,4436.27445175566,4381.11513360543,4477.18806103183,4427.49856784064,4575.87276953122,4359.89472644113,4495.19294265307,4356.52923524508,4559.0755216303,4431.34242009191,4365.03832536542,4378.13574197056,4419.31814167015,4400.6026985529,4667.90323506597,4482.40145423459,4445.77792269394,4480.45030297631,4474.90765535091,4423.97037264818,4434.79138473737,4457.3581932323,4322.77598728367,4450.66721072829,4337.73152510296,4347.48337080826,4354.26318586567,4316.93000677489,4478.21087672732,4476.74010833926,4353.45178950091,4406.96776687308,4601.01498230453,4266.69684322214,4350.04292424946,4639.35758149932,4437.50447423476,4531.26620861117,4341.44468429799,4490.7689349064,4432.50349654262,4942.34914321454,4899.16606696675,4362.76084913931,4569.41751153667,4274.01979536511,4314.55880315337,4656.90023716794,4570.57853618845,4505.58626765386,4441.80303547598,4402.31807498102,4531.53227001567,4558.45405583393,4631.40727377205,4597.835693614,4704.95109199962,4280.41173514419,4356.8470394571,4463.14948280071,4595.78557847613,4524.66957161465,4560.71334105492,4527.33241783482,4582.82214935891,4617.56880740087,4683.76865535137,4515.62250304071
,94.5,4242.69029452805,4376.38185238035,4273.88217252748,4306.21778810756,4393.62506013739,4262.81479491872,4293.04525118709,4275.69911980905,4332.93958293065,4294.20712799006,4322.61811952352,4374.43134078499,4286.8662813654,4385.11372386481,4344.12049383266,4338.31531638077,4324.68222905751,4347.51247228278,4260.27084968191,4315.55033650181,4438.86080437582,4231.07600235248,4386.43727101136,4365.37357921517,4372.43582062287,4525.24956835282,4328.64422823505,4404.21145087763,4359.00343234471,4306.12263326474,4415.77658815407,4368.08147686035,4529.57909124298,4321.55842661689,4458.82642928324,4349.2754093032,4553.07375984613,4425.76112031012,4358.93333434311,4347.47053246202,4368.51335124386,4352.63938130453,4551.39281267787,4408.81104279907,4372.10023579448,4377.12094937628,4401.83595484863,4419.11091088653,4427.66112897584,4451.82437607906,4311.77070029971,4428.28704130545,4311.60368417717,4318.91863718676,4335.26877092183,4296.56278165219,4464.11921005833,4420.98048761145,4348.08595725322,4399.00137283716,4593.84592791938,4262.61768513175,4345.15997967502,4505.05389138566,4428.16866282851,4429.45471360977,4280.8881028294,4416.11830685246,4428.14236996261,4794.48451987933,4762.68904529716,4355.94202889392,4559.0857766284,4267.50033061073,4306.34831126819,4542.10969717996,4450.08141162245,4403.99925785304,4389.28193004011,4339.29588765048,4527.28320236145,4479.62191069137,4545.12087629766,4512.36820684709,4694.07609276265,4273.31642299475,4350.71030922946,4370.91978182308,4482.23337347377,4423.2961243007,4485.06003901973,4447.79811534826,4576.26936649002,4516.69525060677,4563.57531434218,4511.02209660018
,95,4226.53361084976,4372.19422639102,4270.94525622497,4264.49599160481,4348.67900772318,4219.03518551154,4253.67610893386,4246.07119095966,4299.50623011592,4256.34318532021,4298.18110580987,4352.46366816068,4278.0458536878,4377.45588337064,4337.22784143321,4292.29980413067,4284.05853096707,4304.35057417177,4212.96711848696,4261.8706375224,4398.41222067095,4209.3626460663,4369.71277781514,4358.11507802717,4365.98056574148,4518.17392235132,4318.95328523384,4367.94678270481,4310.71412268328,4261.3211361576,4364.8456428832,4319.46143946799,4491.11313960675,4300.33635036643,4440.67616102524,4345.90044729141,4546.89795669155,4420.73102858765,4351.87440559229,4322.40952576387,4335.4440149118,4321.50261619589,4456.92237985647,4354.68779061257,4311.42689890572,4350.70203324396,4383.81856496239,4412.9137369643,4422.34807727205,4447.88213910619,4302.98566562342,4415.615828606,4298.85791491334,4307.5459299232,4325.25462993733,4285.87497323171,4455.95241366406,4394.81932240415,4344.05148509588,4390.69895409877,4585.70320631781,4258.39284185164,4340.64826046067,4436.93011245287,4421.06789375776,4379.38442320588,4254.11340553701,4385.84526601832,4423.92479663772,4670.46165607284,4646.53913524409,4350.73227963465,4548.74839325044,4261.91881865888,4298.7681981351,4467.9515330631,4380.95904009103,4344.14430686546,4361.01941412552,4312.12549491674,4523.57386926573,4412.85447175547,4476.56847111333,4443.2165322603,4682.41937490714,4268.21180864918,4346.80099830543,4317.46950650607,4404.74239946155,4357.31252841485,4426.60176253397,4388.00752735911,4570.42215856797,4447.67673816573,4489.59678731612,4506.67986391659
