,Cycle,A1,A2,A3,A4,A5,A6,A7,A8,A9,A10,A11,A12,B1,B2,B3,B4,B5,B6,B7,B8,B9,B10,B11,B12,C1,C2,C3,C4,C5,C6,C7,C8,C9,C10,C11,C12,D1,D2,D3,D4,D5,D6,D7,D8,D9,D10,D11,D12,E1,E2,E3,E4,E5,E6,E7,E8,E9,E10,E11,E12,F1,F2,F3,F4,F5,F6,F7,F8,F9,F10,F11,F12,G1,G2,G3,G4,G5,G6,G7,G8,G9,G10,G11,G12,H1,H2,H3,H4,H5,H6,H7,H8,H9,H10,H11,H12
,1,97.0112645731933,40.4047930399056,80.7161472139851,-25.8533747908896,-71.8133440604906,-47.019506710958,-47.5740035275521,59.4570347731333,-78.4940855872846,-214.835239833617,-153.271390298468,-110.191965392065,38.7167825477945,56.9531087048817,89.9538172254252,-23.9398818174905,27.8993259041126,88.4765632334074,38.3754625721049,-0.919436944810514,-4.41132397391084,-54.1339136129045,12.8809285659672,-21.8254940939705,-31.5381188394667,22.8303362745273,61.0541628074388,-43.0158182594951,-59.6575975863634,-72.2345649623021,-17.0047319886144,-8.2837487173183,102.621935963718,-70.2192086460309,-53.4297279007269,-4.53956788078449,-37.316372593953,24.0042350594822,16.6302500192724,-16.3195702674202,-15.4650420013604,-8.87765654870509,74.8172825679994,66.514749915299,72.1774827367753,18.0735521949191,46.7555291331128,-20.8625026905875,-28.2837649948015,16.7057567299362,15.3310539718341,44.287075779248,46.4491770683198,41.540578504445,45.351554476204,42.7308638418999,44.1369582927573,-27.4774766981391,27.3758797493001,-12.986769444803,-22.001133729832,22.8231015759975,31.4721496246784,16.5622264106805,28.6668973421283,38.9670225675272,-2.64157987811177,15.6314704191609,33.2521381230472,116.696629970183,90.2322041810658,-1.01228641130001,-14.868134633316,25.6207121983944,18.5831596325825,92.4447462201097,104.833754565989,29.0851734922617,20.5296070067507,-4.40548516238414,19.1154260538715,-94.6952746164225,-82.479189059175,-212.264709760015,-77.6601726331037,-9.77010002865609,-20.1010068544329,-73.3720209768962,-43.74289519173,-28.2490426469321,-47.7546125503359,-107.38138585784,-12.9617310286421,76.7207158699603,69.374064389629,-43.1457243146433
,2,168.661742234347,54.2006413709032,136.944284505069,93.7020398635359,23.157517971802,12.9734619289502,23.3237913920857,27.9592000225348,10.9889193894032,-55.7092816614349,-65.5397943275339,-32.7253554436593,47.5247760847496,42.9738400863489,61.7611008725253,-13.3416840617174,6.94421940680695,48.8798089728461,17.0223029639765,-5.18650797325427,-16.1817903364245,-7.91394193729593,9.54715927376674,19.0397321120508,9.82814443482403,18.7837689693761,51.7515403008993,-28.8103918492179,-31.2309925681693,-10.2713473349959,5.38195390465808,-6.41498322173356,38.4210257027498,-33.643863096615,-9.67402642245361,17.5096983946778,1.55598328822362,17.2233904658051,8.79000771706706,-1.14722098161656,2.85108519459027,12.0594855008749,25.8121997405524,50.4420096308877,67.87987520354,12.5989771043351,41.4458388260073,4.70545182211754,20.3668645896496,10.6078939694426,20.980624485117,38.2027710938492,35.6204001608749,38.8191836585002,29.2820660152402,30.1678266305044,33.1197934653928,-6.55126150917386,20.3716419768652,13.1887738801552,13.1724207482821,23.8730641728862,16.8278824092649,1.35410386248986,30.362412571978,36.2260835130292,10.9821758606204,26.3506566112119,25.2619419890007,124.428406737055,87.0322120121527,20.6129510867313,8.98230586970567,20.3685717657472,18.6162442291925,81.5884051363937,58.6744866125409,37.6736098695765,23.7141629215885,7.22009804873323,13.9881269553334,-49.3702154475359,-34.7216912666718,-49.5638279179802,-17.1048415327768,21.8315575972329,20.3852886089844,-5.61916512566677,15.7560590694375,25.5438715926848,13.1574762750352,-31.2917773481986,7.66072405131763,106.139441578807,100.761218794922,-6.95297897899309
,3,223.002293332293,31.2382069154537,164.953056040592,51.7619274012905,22.0134023280862,8.21504870702665,11.6207628353586,-4.56280767187218,30.3155459966147,-20.993446408349,-16.067794180979,-8.25498631863047,36.2845577487533,37.6117135112499,40.7445950064639,-10.598783614696,-7.61161725716192,16.3331268189886,-1.50928762289186,3.68234603068777,-14.1026254130848,-10.8156350310537,14.3174115424863,29.3168024405377,4.57144121389683,14.7568416838913,39.8128520507034,-13.9177582276225,-1.69811601695801,-9.64324056801888,-4.51747431030526,12.6562310912777,12.5837107312836,-14.8265741627883,-13.7097086066151,19.9415731208946,-1.06559984745945,14.2443574504596,11.6222044867991,1.94832501888777,-11.0985199706356,7.52854371864123,12.972448706867,1.9679694264687,33.6713095820141,14.0379965355105,21.5160279472875,9.32230219486701,19.182208270945,9.74918585140949,14.5201568737648,29.235675809673,29.6932969436093,26.5708768576797,25.799169512552,23.5736756275746,24.8786490815828,-12.4899153436218,8.66112772782435,8.39712437999242,-0.879445269525604,12.6495327283856,10.3237884856871,-4.2869218541091,18.764031730957,0.754844218789003,7.59831797083461,7.6389496876036,15.2236365692206,49.6812419309117,49.8213298428855,16.7474389157414,3.62064446705699,8.05231886869296,14.9986576589718,33.7818391845194,37.2562940595017,3.48575286686355,15.7337583876042,6.47967615881134,8.5187559902688,-30.5684191845266,-21.0364257928231,-12.6742866045133,-1.60475528200641,15.0073470402076,6.97839299362931,-25.6444241121499,-1.11837468950762,7.87579338928117,6.29879030210031,-22.9257746358762,6.49862582260448,58.1107968343913,68.9814526946448,9.14523349708361
,4,282.303208983553,16.3979122616538,194.338039396012,46.6736341391843,28.5613610224318,32.5073153687372,19.5276819087776,-16.4261632154821,31.2068638570054,15.8110990557489,-0.605702005817875,10.0512484541086,24.107144726644,30.4492161633816,20.2540965759836,15.6615092005868,14.5158054598905,12.6696046240831,25.9817622244827,10.3541551256421,9.50448506201974,9.19061504001638,13.5081873027275,24.5465689139373,2.16316108131468,15.0465780194236,28.2714548674485,-4.30561731517992,4.42011501244815,4.34243079323096,17.3435120410213,12.7939838521288,-7.9360073674361,9.17348772098103,-6.56066113590259,24.947160537934,1.13178914365926,14.397956745348,7.51156193992756,10.1769277532621,6.87303636279103,0.72852369467364,-2.62103509022927,13.1457009218793,20.3354131108317,10.7246269410598,24.9824642951653,6.4198558746466,16.6345175480274,13.7653523976633,20.8405109546675,20.7888289545954,15.3469466326524,18.4809324319622,14.2976894615949,24.1410401450175,24.3508124510045,4.30342495226796,11.4973789967917,1.4791213911285,10.0652038446879,13.0724228425906,11.4672905323132,7.78222278533394,13.5096990920565,13.0186340531745,11.0238171947803,6.984408749262,18.9440784386743,28.1738803570024,24.2199081214694,16.5797177625773,8.56111483572295,12.6035487183444,6.27286893058772,20.2316924762836,27.2946735355836,17.59464153105,12.4475327088294,11.9561682901549,12.158448540873,2.45643344170458,15.2035784257096,9.82952455343548,6.88293920263277,11.0695632695906,7.16612776541206,9.9027189646531,9.82017814872597,3.31366906474432,6.51166341106546,16.3084626818491,6.71432409360932,36.2459578343078,42.2519729442029,14.2408604449301
,5,368.663852461926,5.06013630382949,240.690257355935,19.9828212957782,23.7718253806052,14.4250437433766,11.5822515609161,-23.6634451981508,15.6151222916014,34.2829461436959,16.1486754572816,5.38712261001638,0.209956070061708,18.3636355901272,3.44436001269787,5.58988483606117,16.7388222972804,12.9674088568845,6.19061388402952,1.07116035464969,12.1333218345299,22.5376473523556,1.11397711132122,25.2101317037032,5.0881575421281,11.7840707251335,33.9499578711411,8.13217951792103,15.9663995753854,21.9703763764319,5.73783762485073,18.4265691611781,5.12681398183486,15.4534912817035,12.848755946522,16.9650736778049,0.678266308726052,11.8686259998503,9.75323580050281,7.5823246349446,12.6621682190598,19.3206758401193,4.99902520143405,14.2810952845684,1.88761942537894,10.5167093238952,22.9600041356862,15.048205403401,8.80244858522747,7.53217394569219,15.7749177132964,25.2666254455153,15.5166585621064,15.535718950443,15.5412125332505,15.0590930321077,16.7587025641678,17.3653482241571,5.95869336268152,13.8903843783955,13.0813027172571,10.4041419685336,8.42562191144316,29.7149623746991,11.5181004482156,20.7605026855217,-0.666566945585146,-0.611386690421568,5.2762133589431,14.8242246082118,8.90607684997667,14.8222649160225,1.95914204833662,7.98192982316505,10.7979462762314,21.3022948400412,17.1406821080745,16.4610806892542,13.1824916760988,8.18791335102469,5.82724740316189,20.7193515482322,15.1548307320882,9.11809051897944,2.070671177652,10.7320289383697,6.54285705925577,6.70786292798584,5.63917661622509,27.5534240341294,11.3944341540264,20.833054156401,8.10803862225566,29.1568435509525,26.7638899894955,5.46208411125463
,6,493.853549785805,0.747098852556519,319.839514337254,2.05736132792663,20.3729948033997,-1.2308881973313,7.16923537112962,-18.9071897449739,12.6578788380903,24.3689494827922,-2.54755714666408,19.0578092770129,-10.2734627089312,4.50882630251817,-7.19804298552663,20.5012633440874,6.21862659686121,-3.35592156963867,9.39200155475191,10.3766475504835,25.6204217632239,6.8027213483947,8.03549777910939,11.1279741664466,3.96117545639663,12.2309531647525,10.6664691115611,9.31502209155406,25.2698444509278,21.0378069940616,12.7035764800203,8.70600080493932,25.4303766810663,24.3824383551892,13.6645974628236,11.3876132170817,3.871013650858,14.2979645199821,3.28975796472969,17.2112943923821,26.2708577153917,9.47010187020533,18.4140601133149,17.1763645055125,13.7105367158674,9.26230135374681,12.2533806041802,1.4440121080479,4.32510249142706,7.42489895075323,12.8773588538324,14.1146384312788,12.8242541927066,16.6598562382233,12.9386793068661,14.7530874910117,14.8386655231152,10.3866652286288,9.77399776556649,2.45120875696011,6.29982277397085,6.29725785566734,1.04500925576485,6.08917838840716,7.90263517399126,19.7635508850835,13.7575990152982,-20.5954246820966,3.43440595726588,-4.40779751916489,15.5370430038147,7.8531358949549,3.64416041565801,8.84751113379116,5.60138012667903,6.79855426459108,11.6248987469007,7.53704048495274,17.0430815708514,8.8613090821118,-0.575597875106723,32.5865629290001,26.1001547031083,16.9418755754978,4.0994881237084,13.6975377437657,6.30374737465627,11.67926546337,12.5681585552247,27.5447367784982,18.2520007457879,11.9500106270189,3.15113085605026,19.2298135997225,27.0187890231955,22.2472887467929
,7,732.724117423446,21.4636420173756,440.275111432661,-5.18224422181265,-0.877921267659985,5.76961755023513,14.9885744031471,61.8203824781313,-3.4071223300507,21.890805791294,20.500097557534,7.56951647027654,-10.3315181921107,-0.343694513790069,-8.67001222468662,8.2358820345471,15.8239212827411,-13.8346635512498,17.3669540551164,21.9609188055729,8.06358488953811,20.6065715403656,15.100654807934,6.90321422393845,6.9558809163027,10.3355079569619,11.0642779516984,17.2457967701266,19.2468666611476,36.0051368368004,27.1410573746034,0.581285462765663,24.8920334097966,22.6249311807778,23.1392673326482,22.6921754265522,13.0362151592308,11.6708404290603,13.8863832606958,15.835542956218,23.0045459294743,11.6464577887782,7.92643878845411,12.9656362364694,-5.05619911649046,12.7351149166407,10.2637747514536,-0.0685317425904941,4.92305924238735,-2.2393863736288,6.10983698092878,10.8849061239744,5.44636598785655,3.92475496507541,4.66536257208463,13.4579046104554,6.40106343050775,23.1557719427492,0.865115418926507,7.44793502295397,9.11742064317059,6.90967438904045,0.65328423272058,6.92308633542962,8.41194050179547,2.17193297785161,5.14280777435124,72.4089415737071,6.76899286161915,11.0628446959945,21.5841973034912,6.98413508479644,7.54222433432642,9.34138099936172,2.82016142457815,5.64338222150218,-5.06211304475983,4.62443945358245,5.04223993407322,3.14358368762714,4.05916496495774,30.3562644220747,17.6119844693094,19.3492518845378,0.0147862109988637,10.9779859082764,7.93280721674728,12.5875368232482,29.934877138332,8.59746312551397,15.7539335126348,30.0100557462156,4.97854691286284,0.648681953747655,18.7291325279457,5.88588286744107
,8,1053.11040615354,29.0613765522794,603.262317002082,-36.6367876544264,-18.9817917300406,0.697683245209191,-7.36176164276003,41.7148908806903,-8.9708080049204,15.7543722853043,13.5489629910362,11.5919532036696,-12.4834933850789,-11.7018815545989,-18.7834228848678,-2.97358288466057,-0.837742586416425,91.5286585953236,-6.66361899523145,8.06259756363033,7.7502750645599,16.3489317560598,10.1284862997991,6.12906528950862,3.34516395096944,6.02617039483357,-2.63699467264178,9.0525545601522,14.9004748956977,14.7061924261161,4.97064824071276,0.535365914181966,20.0787551375979,11.8655022711364,10.7462425212234,3.64615709548798,-1.15683768643521,6.34711501562924,2.97394275400893,8.25774702287163,7.64733796986184,-2.87310388380138,12.1375143466448,-3.34214902494023,-15.8420643850204,4.01102495422765,-5.00132832002055,-3.79565362888025,-2.66669922806432,-1.74723620511941,2.19532078562042,2.86259074998816,9.42482361438215,3.62288161609013,3.43463096557116,4.44917336164417,2.90230850878925,15.5323176669717,1.37221424678773,-4.69536548153883,0.714496072042493,4.77297961322256,-2.44591394157669,6.2777517832219,1.37324095133135,0.760527485068451,3.69569746448542,49.2923529611253,-6.94443011214571,-11.9656683018002,-19.6059341826731,-2.08990023595379,1.14377648336358,0.535867191646503,-0.213600141696588,-6.13901846977751,-24.5234345603349,-9.02777339848399,-1.46364677867314,6.13601287770962,2.64285992796431,15.6475163865416,20.4918183878908,15.768602735583,1.56489119369962,5.06345683913878,0.522829667749647,1.15039643204182,9.04609278561657,4.6053169842271,-4.17358579004031,9.05690230136497,2.16709699126113,-12.5044110412455,-13.21145972259,-0.19244536219594
,9,1630.01700246804,75.1100242992297,874.553251195898,-39.5001019105166,-19.4429268788335,-27.15008989936,2.47653149496909,33.1501489553239,-23.9656571961696,8.90556343906974,15.4200485797437,11.8696026778343,3.10693472292587,-22.9852275800631,4.8944831231729,12.0598759025142,2.20801542477057,48.5651733352861,-6.80809456863608,-3.71315760169273,-6.18806106524062,10.589043120116,-0.618184269292215,6.23335034870343,1.4464422616893,0.869040435072748,-5.26973302581791,5.72050472304727,7.03849345429444,4.84064675558329,-9.75637393267243,-8.37986708113021,-0.0630273946935631,14.5586998823319,14.829434024743,7.42996981137912,8.09871245276645,1.0700698814926,-0.559144569004275,7.45918373556015,-3.37608207157609,0.819469354972171,-14.9929708920081,-3.48817781020625,-12.4471677750626,-10.4205487196778,2.08553632173425,-2.83589464091438,-4.33913219161514,4.73233144701317,2.0038035826019,5.07790905709135,2.28203308846059,1.26682039581101,-3.14468436254901,0.349257423400559,6.00856025714074,10.2791443516926,5.62628740847867,-3.81456654990234,5.35243175076539,-0.745706896496813,-5.07815318665234,0.449176350428388,6.75553436378323,-11.9244473076997,2.09535016552491,25.4370232853089,4.07358194978133,-30.774900162487,-51.962897016967,-4.1495219701128,-0.182708849617484,-0.551187570915317,-2.02537762601969,-15.0724281205403,-26.0878771096959,-6.76039964467054,-7.87362398011101,-6.57337838452349,2.33418591455029,26.4786495630669,2.11650084015309,4.50594270266811,3.76969698610628,4.2198294297441,10.6587210522694,21.1934808481055,12.802918266565,-18.6241241150456,-14.5427152633656,-6.1582771317062,5.40585077492779,-8.76180346018737,-11.0298582243813,-0.773537846898762
,10,2684.29344146206,147.328753332763,1330.62219890138,-53.0497167465637,-29.6050630493537,-15.202411244396,-11.6017707534284,26.0586768000412,-13.3159355787266,22.6212373007329,8.08348729568388,5.92721557524692,56.7330511583514,-23.657184288686,61.4522214630215,-4.25671632287413,7.24637423338572,28.2778165281616,-10.513170775419,-11.7509144384585,1.28295384862395,8.21215155669506,4.260978421652,-6.80426655370502,7.29364741678728,4.69625052516949,-11.4765272422246,15.0241593594073,3.37672100019699,2.06075540482925,-8.44863929032908,-15.9412711156638,-3.35212903506181,8.10014298167425,19.5582372387844,-6.15609310701166,-1.14450872483303,4.67523993130999,1.24045612903228,-0.317464734498571,-0.461683094466935,-6.23511771784069,-15.9451275811753,-11.2131010758003,-18.7800599178845,-7.30633752469566,-0.607762659080436,-1.95727759335932,-2.52895719926255,-4.59953013045924,-4.78273946563695,0.198461390062221,-0.529532680286138,-2.61587889025941,-4.16878384994743,-7.68945083694325,2.74873937908069,8.79458934603099,-2.97120905197608,-2.03519312855951,1.7770082964671,-4.10742058796041,-5.64071885403791,19.2224439528509,0.146564307532572,-14.9268015758553,4.84045406757014,6.47799588673479,2.08441990837036,-42.3071912165706,-58.605818645472,-0.776110704228813,-1.49785125599374,-1.79254951524763,-3.25692596879799,0.553548321146081,-37.3661427633433,-12.859026975204,-9.64999463474487,10.2741334442617,1.46641633392119,16.61468988058,20.248867993374,4.13257680151037,-0.228110306324197,5.2125996941395,-5.71327896357434,3.10607007069848,-31.1136909320612,-33.9586565673453,-9.097832623047,-6.65167058584302,-1.15839777416386,-31.1499951692294,-36.2864290589459,-2.60453338355273
,11,4288.31037784148,273.496764881658,1985.19705299804,-42.1042721567865,-32.1183788463513,-29.8575144421993,-13.8221986383633,18.7239431568469,-33.3877669752965,7.17227111510874,9.96938588944158,9.45068111322871,144.089826596683,-25.8138001353509,144.451439963986,-5.46818639172488,0.849323956739681,3.2042281734175,-13.3215111740556,-3.52969022705656,-11.251017670691,-1.28268968207612,-10.9060951210167,-10.1366198334426,-0.371278581848856,-1.30319805472118,-21.1293828562857,10.3065468509049,6.14072494158427,2.2157844256817,-8.92006448047505,-16.6486905940455,-21.9666735976534,-1.14894644122069,10.9799969524629,-5.27995807445677,-3.69852375618575,-0.651453395063072,1.14975131778556,1.72986987624063,-1.03236720616951,2.61414811936265,-13.0914419459768,-25.9595771514159,-31.3076941482504,-5.09281408443258,-3.41005823685464,-3.50995758341924,-2.07967257939436,-2.65016276003371,-6.82278738017158,-7.51905576574973,-3.86387250095049,-8.18889784321891,-10.0167803217664,-11.4415891846966,-9.22082366816903,11.1866553221098,-4.24689204734659,-2.64147498599232,-0.574876325875266,-0.866600562398162,1.84925358203691,0.00208818584360415,0.725975774547805,1.03273443462786,-5.85840534631734,1.61614061225737,-0.00786679627799458,-52.7864375497411,-46.6924218942168,-0.974858810226579,-4.84554311078773,-2.00947539563276,-3.81642842404472,1.21397096590772,-37.0748415603121,-29.269401061807,-13.7115991551846,-10.7075055929472,-2.25409438666884,11.6352260289405,-2.46821901587282,1.76297788503689,-1.13615486221534,-3.26249091575846,-3.33071341751565,10.0770068637103,-24.117899050445,-8.81457209394648,-12.1538838442084,-18.3080342166704,-0.92397615403388,-33.6336812594036,-40.4915773763551,-9.15411329778908
,12,6765.80335650256,443.514330154455,3008.07929615217,-48.2900862066217,-26.4423032420873,-16.007722491684,-16.8213131454158,0.118074539285772,-10.1284548109361,-9.19373802735572,3.25009057610805,4.91648018855631,314.564479304649,-13.0779651825142,306.023010489698,-7.72243557047477,8.52686982665909,-13.8247631879949,-12.1232300727042,-8.48116339102671,-9.53368935205617,4.49984124691309,-6.85912816751807,-4.72863378057536,8.35812688749593,2.16285597589285,-18.9454953830682,2.6929628603375,-1.30205705555272,-0.669690729824652,-5.15370109148535,-0.614744363070713,-7.51148717714932,9.9300977183575,-8.3496666797364,-5.18636543731373,-2.52778828539795,-6.22634249446673,-5.07938405397545,-3.22576762400058,-13.5251166347934,-5.4448907734095,22.110660799799,-0.479197964315972,-33.3571134990125,-4.20962852939738,-6.55076195858419,-4.52873300736337,-7.28861279949251,-4.88881702308026,-5.60768134088903,-11.0099253309336,-5.11262894910215,-5.4639236911662,-10.1189685264399,-11.5442084697988,-5.06849679034349,1.91769946201566,-9.07390133249373,-1.55710170144357,2.91935221068434,-4.81974551194435,-4.47829830782484,-5.89045048265507,-6.72444631202598,-17.3588536413463,2.90235171629138,-4.89991600310168,-6.57275275916982,-57.9481958539363,-46.9199096858611,0.481599787663072,-0.220577354957641,-3.20066958302687,-8.35636923504262,-21.0084112982695,-37.5270933610809,-24.7102499145676,-17.9762084839149,-7.19745515952854,-0.0071242836474994,0.027680908473485,9.24694553546033,4.40626718523345,-0.355201121502432,-9.64305769603016,-5.66123478360169,-4.65475335771771,-12.5480717899209,-26.7728707718179,-14.9479219819441,2.07661981263664,-8.11532484939835,-31.7732762274554,-49.9048392898003,-10.2409681930385
,13,9338.48267472691,687.25192638112,4452.24697319053,-36.5111771551074,-22.4934770539312,16.3171640432502,-13.3046788877728,-3.16206491631692,-15.5827758064424,13.6571413438833,2.59697134889575,3.88311457449799,557.850365614005,-0.987181287002386,555.718266278833,9.55640166803641,9.0253123707389,-47.0510524115361,14.1649020238019,5.45656719108047,-2.8821379662877,14.7996406880839,-13.8212999228163,-1.6257447230264,0.0829760794167669,-4.56919721267695,-27.5857284822387,5.15900621396941,17.0028406443962,8.23691751152728,7.74974569299775,8.51224798039948,-20.6093092630963,2.65576488216448,3.59700312921086,-7.13263926189211,-2.91133668477778,-1.2703611043853,4.51846135442884,-5.8917934986348,4.5592114150968,2.62010809659114,22.3689292971594,-6.45355089631084,-29.7344222181764,-13.0580399114697,-10.4489116936402,7.55853900879538,-9.32367664318281,-0.98573140849021,-14.1309106032259,-12.091301226159,-13.5686653017801,-11.7034210170905,-9.7500898959197,-18.1202604124192,-12.5357825374431,1.89840727723094,-6.09450764076246,3.08737049970023,-3.74056443546669,-7.3513092224448,1.80631492186967,-19.7783691289751,1.06396186442453,-9.30126616654525,8.00048501291712,-30.6674813398695,-2.158907660767,-45.7857417444939,-46.5677361236212,-4.80481573829729,0.690086096067716,-1.5977196630356,4.8318183993415,-33.453848224357,-15.506696953149,-16.6927206775235,-17.1389892894713,-6.05484830237765,-2.45294076291248,-16.0106696551993,-0.257678222122195,0.548206218822088,0.898091386483429,-7.63245403396741,3.61506810908213,-0.87648783063014,1.40982584964331,-10.2284305567937,-19.1281547283652,-2.91155106611041,-6.50408767045701,-51.3608871701435,-54.6368463971376,-3.50346712237115
,14,11856.0430533136,1051.75577282613,6526.52792669283,-16.3082080871372,14.7654531103071,62.0912047368274,-30.4507337921041,-19.7050750217795,-43.5066326168253,16.6759458426659,1.9009809946856,1.55353070287129,951.142060424166,32.1772580294428,933.095175609759,16.7124705310416,29.8942239211665,-55.2043704081825,37.754445396411,30.3539370685339,-12.1191771677222,31.4430862102718,-2.22203970678584,-20.3907520533648,4.27599681523407,-2.5157491921982,-31.099677201033,-3.34120240170887,33.0351706477286,26.7400933549652,31.1369788821194,45.1181562949969,-20.8600911430713,20.5737204603538,-6.12355160296011,-12.4105313602931,-7.49052615127039,-11.9494538163635,-4.45427309290972,-1.87315989914714,7.52294838826856,6.06554382922877,84.6408578117407,53.6113574366882,-2.43060043903097,-3.61039018282736,-14.4524355381627,-4.4252429751723,-9.51008443787941,-5.39370152791707,-2.97982724110898,-18.0299261619575,-17.2430084138105,-12.3118508270636,-16.987572633845,-18.9417854597486,-16.2238729510727,3.33876384263931,5.8304771811454,-3.70615285182066,-3.50178619817416,-6.75457127518075,-4.26956743819028,-19.1352594184973,-4.83505553208215,17.1126649413345,16.945135173687,-11.3672751179474,-7.24599433652838,-22.8921184791379,-19.602536406961,-4.11476935465453,1.96134302969585,-6.93275286129392,-4.5456619086508,-25.295569385944,22.4048423148652,8.28311975785255,-21.6123344602656,8.43493452282837,-0.629652941194763,-6.05126005958118,19.8151310414269,9.99133176657779,0.519169007863638,-4.83512542807966,-7.87519809662263,-0.014571414420061,50.320086791693,3.91599851069805,-0.0586646440133336,29.871111435521,-4.26229806807805,-46.2060234246437,-50.9374017905411,2.77395284805971
,15,13952.916362658,1598.6916458565,8783.42493843463,35.9091851435223,99.9452073133816,164.947229090094,-31.8816316619395,-37.5115972322055,-30.1849652185301,32.2072106930045,-7.03991213790414,-2.1397225639812,1589.07025973748,68.3482046130075,1542.54753122935,35.5944768920344,61.8834085439212,-43.3210385248949,109.090324765297,105.017012285976,10.1434621587396,71.9958896963253,-20.0820132049676,-12.1012414225197,3.59766363977269,-11.4727519776343,-28.0404758377163,-3.3925307826994,90.4782011263414,51.387978100116,103.140317136733,127.96691689038,-25.3792121095357,64.2772889215266,-3.47639926268585,-6.81917720206457,-0.265814074501577,-9.00136080143602,-9.82360708437864,-3.00078688469875,23.0236529418416,25.2433406194341,192.05285005014,122.615537631717,22.6639950070057,-19.8340040638786,-22.1662127718409,1.28873522792219,-5.47619314284293,-3.09184311924582,-12.4550949083387,-18.5662025850152,-17.3844419833404,-15.8281065618894,-21.0921688491499,-17.9241842488218,-15.0535755247265,21.5542033409183,-3.61699323728499,2.84865186985826,2.81056984064708,-8.38742616927993,-8.20143858092706,-21.5327158238524,-5.16861856452852,38.9398210010932,43.2559965706168,14.9665281488215,-6.51855410546978,28.6157846580372,13.7482376569169,-8.30206371062923,-3.60092237347453,-0.515591404738188,-5.85089154840807,-34.1285611477106,100.483429710583,61.4080228900511,1.78752216166413,30.8659371870899,-5.33977029918151,4.07131022229441,83.0651048827094,42.2654560729534,-3.46305880018826,-3.97767780837694,-6.61343806576679,-11.6222270399121,156.756528399299,71.9518996852712,8.85211884089767,125.216579575414,-1.65738635158141,-61.084085776225,-70.0109369268703,-6.50488995840806
,16,15521.9410907653,2373.09403670661,11138.0095471001,125.646485174149,228.514805333543,353.118315051763,-9.86171453323004,-22.3958592901072,-42.7757934310466,110.711594875082,-15.0706295206128,-8.64046942784353,2572.31214948871,120.681737827206,2477.39023616533,52.5001099039073,106.062662649319,8.9521337038932,246.08038179874,242.204440852593,28.0728280917065,158.053497601309,1.3168732731956,-13.5846693230833,-5.51596760244684,-11.3503463820725,-24.6811562020712,-6.28629556437954,194.200878248841,139.992272336485,203.784719723,276.11557402076,-12.4209287555768,129.674582453838,1.1952999352643,-9.76074811662511,-1.00376821837199,-9.88292357588216,-6.16766973130416,-13.6086855240483,75.098066238761,44.7058747955653,386.694518140086,281.84495719074,73.0250514132058,-22.3913737566363,-23.3450680012729,-4.28618795387047,-6.71079219371404,-2.43002805973629,-14.5605067860733,-29.5820201885736,-22.2420063664458,-18.770301374162,-19.6359869306116,-31.7544795908243,-13.3894084374542,39.850157759487,-9.59681159280899,-5.20541572284583,-3.54371024211287,-9.80800917535998,-3.48315991786876,-14.1355432031323,-12.4436755403485,109.703098754431,107.680203092079,72.287252434362,-11.5474920266042,134.549053592484,144.969196613993,-16.4396249434303,3.4296466639189,-11.0093625934041,-8.34567125688864,-37.5196918769816,253.565594197064,164.784192682922,11.1129668430376,104.309799603565,-5.5976820627111,35.609875814238,189.85248161034,109.642176357791,-3.3706125775625,-12.1724504066651,-4.1414574301325,-26.7431793118649,386.620954975146,205.310871724168,45.6064254380799,252.216165652853,-8.29907011523665,-48.5734247999317,-65.0592768195893,-2.14917614864589
,17,16559.0127925686,3471.55625793685,13215.2964110489,294.494900379925,480.582792783252,714.383222421649,2.66826181778379,-23.2659319744853,-21.3223255856883,242.873331049233,9.22563140223428,-11.2507681077486,4032.86564301336,197.773209638834,3847.60147134252,115.10275305363,215.699576449209,105.751976571421,505.36877641498,483.78695526634,106.156171922157,293.834292558023,22.3802665566227,-22.9856294253204,-6.31104956024683,-12.2145377234319,-13.702913273688,-4.58181091496044,395.310779286374,283.290030262644,418.987619354992,556.193108266854,26.1526423637279,277.073782264236,8.82687639735832,-16.9368075004913,-4.30961273695175,-8.22573437390383,-10.7540692135462,-18.666482400984,143.587667484429,101.540149496246,768.290618685985,582.209991394455,167.582157805678,-10.2974108703675,-24.9624286170747,-7.58454140243794,-10.5993613849487,-7.18966576825824,-22.509422246786,-27.2897834479927,-22.3863438023081,-19.9637404764426,-22.385197572069,-30.1942425056577,-19.4242043207778,95.1896081817704,-7.86003370558046,-8.1107094154986,0.325146011688048,-8.20764439102004,-4.63112928328519,-27.338245177516,-7.4083156834422,222.490037048306,216.712391952578,236.394147446355,-8.14923042797454,327.461934867664,338.933360565814,-11.2599403130007,-2.36383667861082,-7.79836130809781,-0.54800898394933,-34.3106891671796,535.71275629053,355.099364755137,62.1638574086619,232.850666651573,-3.40162178276296,100.519211594432,349.756084384022,227.544810718089,-6.87077745608076,-16.4771519260594,-4.98775869485416,-4.65463903425189,776.032265155523,433.988285697331,117.620771348877,494.445909111773,-1.72051813485814,-62.4622640234975,-74.2812485237755,-9.40128667714453
,18,17286.4761529525,4751.8250267057,14964.468724201,523.855547272464,854.028657704333,1213.99533733366,19.6149684159536,-39.530804056365,-5.1786341120478,429.317667279445,15.6398034817439,-17.9956057182981,5774.45009011572,273.71382657405,5466.1086967307,204.593668313657,362.157153380775,255.734551547052,848.704973067783,829.932534164182,178.803514396395,512.316173849793,41.6765054577791,-34.0815425473138,-9.37711587831745,-13.9575954857573,-14.3841433972502,-16.8825568483553,630.105998819512,466.701834259076,695.099038859667,933.042157698001,64.0386534316549,457.20766980749,13.0316561020336,-24.5975143917694,-10.502163949076,-13.8520047369084,-9.66693372384998,-14.5831120758685,262.289216897489,166.336564573081,1257.53299204389,995.848965929687,313.959494612685,-17.6202032105584,-41.2687218548463,-0.799212694544622,-15.7012435136212,-3.06054600915922,-24.9371729387249,-38.7272935671808,-32.2550630949872,-31.5723324985702,-28.2455992641553,-27.1054964981295,-32.3150337737243,178.291157701069,-12.4169920403447,-7.75905637845426,-13.1454929595611,-9.84586226065221,-10.92206140908,-35.4926398888638,-11.6549272449129,414.585898112002,401.959184660303,452.076688974466,-12.7905086112787,603.371281431439,602.818661435353,-11.966092757516,-10.7393598692333,-2.51173738350644,-10.7228819811089,-45.5798169000736,953.785488284881,627.322521912489,155.657369110139,433.328636105785,-9.8935106384406,199.471177484143,606.794002620016,412.544441639104,-2.3526115917839,-7.73822562610803,-8.97589371884715,-40.7220964512362,1347.36753136518,802.693660185812,226.75387426311,884.324159085108,-5.05812916202194,-66.2229673514812,-60.584950542232,-15.3862256227358
,19,17765.0813904142,6797.57714660301,16254.8573237351,1046.53537252319,1645.55862965762,2286.51589268122,65.5654361223988,16.4318459480164,32.4974984173841,944.497594750081,69.2479560165521,-14.9835229454029,8361.09040235976,434.999594094267,8015.08453427337,428.512909868135,759.582266446007,692.331359786376,1659.64345234606,1597.33613960055,370.963436911245,1054.09407630446,105.873825306212,-30.7792136173575,-10.3715788734971,-13.7349008863603,15.5018955416663,-4.70061814568544,1269.34093879189,960.481614894514,1352.92902660952,1800.39379635492,193.899078025755,934.55156371227,61.9139001922358,-21.4474288337942,-6.85605215513533,-20.9794178451184,-11.4358979766748,-19.5451850616118,560.939648008332,370.616696644975,2288.47579781598,1882.90487342082,652.627488489936,-18.7629734656775,-34.3007383519807,-6.53027035897139,-10.1848984548278,-7.53518510993672,-20.2473486637355,-34.3040131838688,-25.7338135341897,-28.2143464032742,-22.7593332302986,-28.5230757342515,-32.8633875369642,392.073513693231,-4.02744527001687,-6.96302782567545,-8.72125724151556,-9.65397653746732,0.719629615409758,-24.8312113339944,-13.9524086701604,864.261222706808,800.813960017944,1016.84000198874,-16.0472342163011,1228.14325459884,1225.81243777595,-14.1381160208812,-3.48622440106828,-11.6962546892792,-5.96063794414567,-21.3644720242173,1823.23284081585,1226.44474796934,329.039988584715,887.300071229094,-9.20709595956487,469.54330573366,1207.42422719346,844.023618625666,-5.92402698686965,-15.1465811597664,-1.31917106245601,-29.2122042529063,2465.02236509192,1525.83059209242,450.67154839547,1725.22426827067,-8.28450087216333,-55.5928236943892,-49.0591153735713,-7.81975173741557
,20,18128.5136866663,8908.41835622472,17276.7919182504,1721.03406432398,2674.52995197637,3578.24835714259,158.179278783486,80.4035157743501,101.421710086604,1587.28772999632,113.689122113771,-19.3030753954108,10819.013836898,611.366862976525,10518.6073504519,689.405277618462,1225.5293507666,1192.91021237947,2594.06161149338,2548.60052199465,653.212457622294,1752.50095916935,192.608321173791,-21.4537771483429,-9.95421618586806,-19.7905522944702,49.5588236961867,1.54304399670582,2014.31997540642,1569.14508376016,2179.33224523846,2829.48728131324,348.958252836816,1576.92514415238,126.884441833329,-25.4957929512229,-3.63482688305976,-20.7130331708122,-14.3457902792579,-19.5667286300522,959.442372106107,630.665246116618,3324.01855726426,2977.04055103877,1069.40728789247,-2.78043195071677,-39.5815029250425,-10.3080154240452,-4.83485706455758,-12.2951836974253,-17.0007785803091,-39.957157956329,-25.6224118234295,-17.0968009350727,-17.6928909906264,-21.7415469728458,-39.1404410153809,671.30744379377,-13.8314899350535,-8.28290345287223,-13.7578978827833,-12.7095233858772,-1.958334581278,3.58052867109473,-16.269764708245,1453.64381719106,1373.15677689695,1784.96585388586,-5.000535020803,1964.28083657973,1988.6104176372,-16.573789728609,-9.32669143879866,-12.4914108775647,-9.92376219744074,-12.0660045435252,2947.95871462428,2049.33179229698,597.768138589528,1535.37968011905,-11.480158655334,832.383618627897,2003.6881843403,1421.27817759586,-8.84688511074364,-20.5092837988605,-15.2217245700567,-50.715810109441,3771.02406253969,2507.17833771753,791.489700949847,2799.73614420775,-15.1504064648161,-40.3918808105918,-11.401800422118,-14.8191350387488
,21,18374.5308194012,11079.4812016858,17993.6733335279,2832.7886275133,4336.58563421514,5439.25662175757,362.595368135557,261.727256600801,273.844105392966,2763.50147935488,228.022990513262,-22.1444499037698,13015.3253236491,881.907910401878,12858.9337740351,1193.4022805258,2089.5407006739,2148.42642194065,4021.54425624843,3996.82500858564,1131.0944237255,2977.94783431408,375.891701004854,-33.4181331575683,-11.4084940314706,-17.2018737388653,88.16492282327,34.9640835934388,3204.79532322677,2593.62709282532,3520.81020097128,4416.05558698167,656.962175491934,2711.71718665954,235.392657440315,-24.6183699047242,-4.74508702092589,-18.7084372241279,-11.8043822015352,-28.5525159737299,1695.76360667709,1118.0407488332,4633.36478813537,4568.00869246967,1824.56449898651,10.0551039864431,-27.7287513686042,-12.3475505441256,-12.0240177717915,-1.70043742376401,-11.0317637158978,-35.6492721473051,-14.7180762924745,-14.5938492457171,-0.883840421621244,-5.2412743202367,-30.8103055955135,1236.14166118633,-12.475810573862,-7.65512728560589,-14.2610135362229,-10.8736015457343,-4.07208796241503,24.4189650367498,-20.7465465287733,2477.23924923412,2367.16704661073,3127.17001761225,-8.84944295944297,3042.53418762883,3158.63695106687,-16.4516274904663,-2.74230398461077,-17.1578485362743,-6.33527749064706,40.2053548349286,4533.13109193011,3349.08817764427,1092.31722126631,2681.13053637432,-8.76624462100244,1464.75999262213,3252.51979207055,2411.09055632041,-6.71602876192537,-16.810992391067,-6.49077693905292,-20.3809580425313,5405.70147917737,3928.09831278502,1389.19879331824,4399.10072794348,-9.73097412188145,-1.23582584059477,70.0690848739869,-9.84916150416393
,22,18560.7577209189,13167.1708858521,18540.218463192,4477.20943482084,6555.17853414051,7503.12223567329,797.243138143032,586.587165984962,596.424565847208,4570.84756706031,480.575719678521,-21.4678930076698,14860.4305362098,1296.3796173353,14898.7747572358,2038.4542336047,3426.66205306793,3608.88721334463,5716.0511243919,5839.09154217822,1957.05445280742,4875.48488807923,705.068965772178,-22.3157565876718,-8.71869343458002,-18.4342181231104,160.748792881396,89.8801117768598,4793.918127496,4082.71455017218,5350.94122680625,6364.30870980569,1195.63177011212,4487.63474774058,464.191350071822,-30.8343742567713,-4.8615348553576,-19.0234735151835,-17.7079845367816,-7.86786204551208,2955.61833509912,1972.4860397826,5812.61349948604,6352.49924617916,2984.56329146542,76.6004834540381,-3.28720254367818,-8.73449689191784,-5.90834198693483,-6.36705169081961,-2.96649438465465,-26.2758514085172,3.81425671090255,2.44756713207516,34.3892157107539,33.5198910572844,-20.0496020198898,2204.09874606454,-3.19315487923177,-5.53440099203453,-14.6632701907165,-9.24422405860241,-6.15860632261592,82.9469050934149,-26.3541083706514,4022.22551151096,3954.01972983462,5246.92592625597,-6.42966509829876,4335.09303193156,4566.14768506021,-13.8150338947407,-3.92471501329965,-9.99030506030795,-7.48891333364281,126.761168166006,6355.73498451412,5170.51305166297,1961.08232209913,4512.71222922859,-3.16372416837658,2525.10837519545,4986.89616033195,3873.31780735843,1.69330121670009,-16.1357238716992,-9.24916207136994,-9.26759205693452,6890.77222087385,5757.86030641865,2393.02814895386,6313.09853857003,-10.4375189314915,67.4588067842633,231.801882871749,-15.1002847390819
,23,18702.2893909076,14959.2752297306,18944.1660643967,6323.05511440299,8674.91997090333,9312.12503720596,1504.51147877351,1192.32539840111,1167.18642416157,6487.0969234814,838.087213653061,-18.8690959954947,16243.7931400025,1854.63835771935,16485.6150325002,3129.26987057589,5077.99412373706,5277.01061507908,7034.42943893985,7380.6792908985,3112.69007829438,6896.36538025897,1252.91613943862,-10.8393410936633,-11.9709474272859,-9.72949514824631,243.708278593481,171.552477552259,6123.71264595341,5639.58447868582,7131.99651584387,8127.67538422751,2005.10842519557,6535.78163899783,837.962921950528,-13.6431070231474,-2.48423931107845,-21.7522934890094,-9.76153765891468,-0.71236111674807,4637.56254566155,3224.03362338054,6803.78695688462,7889.98564333913,4411.42491322133,164.934921486077,42.5846399570773,-2.74887228269927,1.34337770973343,-4.29567711532036,8.57196702738202,-19.0955107303789,35.4977049658191,36.2525680596209,89.8321743809611,119.35835625942,6.65329248237504,3628.34838900157,-7.10802609060556,1.74946100795842,-12.2035728932497,-5.65198196202709,-8.9211212427972,184.831435022053,-16.7710411072012,5888.02879579082,5857.65085779743,7561.39562931214,-7.59675565162524,5407.69737897436,5814.9913507942,-11.9203549362746,0.544347891317557,-6.51280496463278,-8.33455127429079,298.705720429074,7960.92188412508,7072.14124899945,3324.27576135893,6907.93460941094,-12.4631037771642,3931.64524813451,6643.90070827254,5575.4514398956,-1.1906590124654,-13.3919587292885,-6.62940573066226,27.4441574778302,8073.61184040273,7264.17300690207,3761.93678619016,7966.06197162667,-1.16969009866352,190.313304661468,532.462652904587,-5.44417590812373
,24,18798.5655499696,16301.1931114937,19206.261342238,8031.39929821458,10509.6000529542,10703.3332018096,2729.17223448811,2246.29606088259,2153.20647500524,8066.94058128967,1460.15350321154,-21.3175035793302,17196.0009542306,2670.54231436945,17594.4979981199,4541.69768746672,6599.93323931431,6684.60175437372,8088.95731952002,8627.89711070628,4648.61737517837,8492.65050631742,2134.55872033882,17.0578882792024,-10.8778909677649,-16.5701801985342,365.459328150446,331.83728753009,7135.55473678554,6829.34385108512,8669.56402294078,9533.71576030236,3249.07499995523,8261.44635069726,1451.92249461384,-23.158118066779,-0.703402543109405,-20.0086028328715,-1.46238014273877,23.9521607721017,6619.045181697,4930.74122946169,7522.63077608603,9027.23825015727,5945.40422138358,336.991573949094,135.46703680978,-4.35036255577324,-8.54470459885306,-5.69766556676495,33.1803701802919,4.91292657378835,106.648653879163,96.9865065905169,206.936209463808,258.305400689603,42.6387196533533,5654.58919179095,-1.72200437940501,-8.13139772983504,-9.06653549966722,-9.30123648582048,-4.40075234511824,362.758342071413,-14.7390157980362,7547.6729422509,7532.69880846906,9435.99260622073,-2.63302968249354,6307.97096783484,6850.82809144113,-9.95723232301589,-8.30043953639051,-10.8889642596905,-3.79032640732294,593.817529864964,9168.12409461982,8737.03566018008,5286.79743157114,9122.60575203892,-0.285041475133767,5615.30215587406,7978.55471725867,7040.03471145404,-7.22232284798974,-9.90803003170549,-6.2554063885691,88.2525981819945,8833.00589850848,8472.9856229932,5477.44283149573,9179.54706188589,-5.15554709741173,424.194119961068,1068.25304300176,-1.75583134232511
,25,18857.8078138929,17316.2000108964,19406.7545087595,9532.70848902952,11942.9038197473,11702.9230636298,4361.07354527276,3730.88676409044,3578.81174820258,9213.73333010623,2349.41216668254,-21.9798437983563,17864.6432194949,3662.6483031149,18380.748487237,5779.17832424553,7853.78783158555,7806.2677101056,8854.3588207169,9543.80748083557,6242.80860776779,9526.28850056235,3302.45583136076,44.9845734290484,-12.9419595442059,-17.7419924412034,509.807845994341,567.047328470075,7827.33641264156,7777.70623557806,9892.70940553179,10585.3580228638,4800.3248182399,9516.78509486897,2299.69991417573,-4.87732642221908,-1.84563102366428,8.23502692147758,4.05026942986115,82.525114007607,8369.8885399685,6670.54497432205,8070.1058886618,9850.90487003359,7362.34132417133,633.37360477424,284.415431794249,-6.92448576748666,-7.57267017960112,-11.7672705610739,65.2937774026414,52.1764442458261,215.649191624828,200.129739231496,385.587700212658,491.184464661491,123.451051736568,7697.03189382133,-12.0731644204861,0.647751518195037,-5.65609934366694,-8.33355958750872,0.891727578602513,646.428819969493,-6.04006543067408,8940.29412808472,8775.28243333496,10646.3130208427,-8.98437610463316,7029.51744469501,7671.38647909793,-9.34546097490693,-11.5774155825993,-9.332019228641,-4.52966679543533,1087.64151620476,9989.74539882577,10047.3943681738,7664.79973591279,10989.229391812,-9.99662663189156,7114.52017553234,8937.3289713917,8223.97859252473,-3.63171409247298,-13.2614478975574,-7.09571442754532,210.477308579219,9332.05767049683,9349.89248736342,7083.58931552755,9997.74009378203,-7.17447754009208,819.064979515757,1908.34545448936,-3.05777581729399
,26,18908.2497133089,18060.3515584449,19564.959862147,10707.7980408594,12974.7813327708,12386.5288386402,6664.69774024689,5865.00921787035,5649.23876206855,9906.46006409282,3741.17012581591,-12.1387335064019,18336.9832258265,5200.55297808987,18925.9147936223,6917.51409453486,8749.66090416103,8583.49959762347,9403.38824983064,10201.6355286787,7776.10092913407,10072.2813054302,5025.27368715335,110.114918009508,-1.12756641513988,-14.8283017160384,719.495722864755,1001.09457879439,8300.92787656977,8434.8981623581,10795.4152916648,11333.028865405,6916.36763331594,10239.7250971187,3653.18592542218,3.32539351614923,-1.93031932497342,16.6529862577463,5.28341150830965,191.86926902684,9704.53850880955,8242.67124544279,8489.75994009953,10452.3261839114,8571.85702657941,1190.76246856057,574.781555858587,-9.0721368681825,-4.40868322934693,-6.43978279490693,106.817234879011,138.322278882104,429.987329088183,406.480901945906,716.169624472239,927.173136941726,277.511568706172,9507.27853684486,1.49478307471873,-4.57047289723414,-9.75215443375055,-8.66445123288759,-5.20704351974564,1113.45327991491,-11.6874963800183,9975.09152953177,9487.69422869677,11204.431784468,-5.96778792453642,7602.46859038801,8294.27665029139,-1.34659342626856,-5.75649457880445,-3.29275034000966,-7.90604626483309,1924.42831771738,10511.0100355345,10970.0846187526,9960.42325390902,12265.8503547542,-6.46521625968944,8445.02636405623,9549.09078782045,9039.80908565693,-0.678820063068088,-4.66646867703275,-6.66026544228316,467.895683517572,9699.37225031944,9962.76143627255,8543.82275516694,10549.9080103784,-7.10637336430682,1532.68192515413,3289.34332500988,-9.95877391359682
,27,18934.1759482622,18649.3196547227,19682.5127685984,11624.8303564495,13729.145044831,12872.181396521,8864.04628141073,8131.20205778116,7960.42691196541,10405.297695114,5646.04466669967,4.5815979784893,18706.9706565161,6958.97280304757,19332.9127840021,7890.53145438096,9442.29336970713,9199.74729839061,9843.39260181234,10725.2206939901,9171.61919427001,10442.159319054,7102.20535014848,218.118468750655,-7.2667674176264,-6.3677204964888,1001.14845562144,1685.59137600544,8723.11314819659,8968.44170104225,11496.359323741,11904.7398075666,9045.03201718971,10725.0128073007,5532.70022463201,51.3627821988348,-0.812960568554445,20.5839633908681,25.512393432854,393.175925523708,10678.9716832498,9518.1285321086,8855.01277126046,10926.985044164,9602.52819956023,2151.18328954435,1108.84657278421,3.53465899909224,-0.860818456864763,-4.81662886348659,183.73764519827,302.494033964213,824.311602002225,770.120670811102,1320.33693088067,1682.28122280153,548.957827294537,10918.1829249546,2.06629717768101,-3.93427902082476,-9.4355578383811,-0.953031160599494,1.37081409915027,1840.07626751816,8.11986748099298,10771.3360975406,9930.86662107487,11493.340881928,-5.05840617744616,8080.07659798452,8837.50535539729,5.70422287580186,-5.63606639927184,-3.09210056244956,-2.39219529934144,3185.25868003247,10887.4068326664,11636.5508966426,11974.4318073848,13114.2562624926,-1.0964643683119,9516.40098952126,10017.5984557219,9630.05661941384,2.98528934956812,9.52840662297695,-2.33716678236669,878.94293458711,10005.3324362419,10456.877054777,9789.59002634328,10975.1925681246,-6.17709209278655,2711.83460525185,5287.12354289644,-8.61554407110361
,28,18978.3735567731,19087.2745652542,19785.7335544729,12289.331493376,14258.2999673159,13223.1449883042,10749.2413860307,10111.9005437952,10061.0677700345,10767.6370541994,7886.71158651278,39.8054481283298,18972.3720887167,8971.38963549813,19639.7842567771,8659.49464576068,9972.31219794867,9672.24898889714,10172.4751216827,11121.1583400957,10323.988804885,10742.7979228338,9063.40743681151,392.818209474653,0.0213423426457666,12.360436484867,1429.99968784891,2803.34783052827,9054.27811612898,9396.56251114045,12019.0605186008,12333.3851278299,11061.5044105455,11084.1308390623,7872.17932751268,105.015094713639,9.20054819697634,19.8856877088474,41.7787121452884,754.422047044316,11331.5877252995,10432.6359388975,9121.39706066566,11285.182544782,10393.3790851131,3794.71733514566,2046.32396537564,-2.10239523854216,4.92302332032432,3.70783518532971,270.579835860945,606.901908564964,1516.46905951749,1436.81514052631,2383.92125084364,2950.27501720236,1073.47579023565,11881.8471696686,7.12290838733588,-0.800280152934647,1.25022575503772,0.10416734174305,5.00893267260926,2994.71767625,34.5716207656096,11356.8062276805,10238.2176347717,11726.8577864209,-0.0425479442792494,8453.70462323297,9254.10027755468,32.0328014970455,6.85727098488951,14.6213141775634,2.10921754910487,4916.39061407508,11166.9325181958,12101.7590785977,13483.2128928952,13665.4327792213,-3.94926440951076,10311.1472703622,10357.1320434394,10055.1008759065,12.5313037334363,28.5847263032529,4.26049476841217,1600.99758199932,10232.6865814604,10826.4803129461,10764.2330501907,11309.4749883822,4.36537526853863,4480.36303870981,7583.57241502774,-1.14471974983644
,29,19013.9390783864,19424.9183522862,19845.0476681416,12785.0756869052,14629.0262710641,13478.4857676985,12141.7392585598,11637.9131017499,11756.3105797429,11030.6696183335,9925.75392238351,86.5296559851968,19166.2607043868,11076.7416866398,19874.5923189252,9257.63775198478,10393.6905473534,10031.6867769228,10403.512883198,11413.4035785601,11238.8523431242,10993.467509635,10743.2467940922,667.547262691024,7.55616333150829,34.6851483667788,2017.4440606321,4426.94930421097,9299.4680436643,9731.49513797964,12406.992101044,12654.770610467,12789.3373262634,11376.6716951312,10108.053153375,195.958669822591,5.58525808021841,27.3348481488456,68.9372788347537,1397.41066803972,11846.1207296804,11105.035997737,9451.59396767262,11544.4123776355,10996.0052183298,6221.43287426879,3623.58465195346,15.6571516189879,7.6102561773414,11.9700284962482,406.70707654406,1168.21472194381,2703.14066539835,2548.95145844323,4119.62317304165,4902.55724073898,1984.3101741616,12550.0157031704,13.3071681599395,19.0419363419551,-4.03955221656361,10.7663303136433,0.841965957814864,4580.85240998209,77.9692184309215,11793.1842826488,10499.4810124831,11948.5155261038,-3.55188691032072,8738.08039175607,9583.77315012186,58.4135133544632,-0.322172711524217,21.2574588703346,7.12645558440545,6815.17449205498,11364.5739246582,12430.0535237861,14502.2486607758,14069.4560647733,3.55696762092794,10879.1096869096,10616.0049949984,10368.2250928101,12.8364667144269,71.0113992463412,7.16860935456134,2749.29721855002,10385.6509766117,11109.0876578741,11526.5370445842,11565.70022484,8.64102304231528,6802.90516988092,9623.31061545611,2.02848191530211
,30,19035.171271662,19670.596223364,19916.309575218,13140.3653374898,14897.2417116159,13669.2506824112,13035.2820300011,12624.419818537,12945.2510795871,11202.5971371384,11564.7619762008,196.605376130341,19308.9929746788,13063.6106195364,20060.4644170662,9695.71633477776,10695.3451544968,10284.3961705785,10570.4762124136,11633.1260225374,11930.3885787355,11169.2462800933,11993.7858721595,1097.91481769924,17.97686821962,79.6210411313214,2887.10411320053,6548.13997927675,9464.69162613669,9971.48379131378,12689.4195397476,12889.230620396,14108.0454867169,11577.8900149856,11994.9241311246,372.751408094677,10.2378032086744,29.1234838376304,107.58948858614,2506.27973944849,12223.1967082596,11607.5627816122,9711.40080412972,11735.3635654781,11427.2813310465,9129.24697418804,6068.2439999678,33.3921812785647,16.8578626754033,15.8137588202344,598.541460506861,2164.90624637253,4611.9259748696,4376.9636875897,6733.84280822635,7487.34776640242,3572.66183231367,13030.7311679154,31.5347784339265,23.3337172131269,5.88103293840504,22.9680390968697,8.22616133485371,6536.31981752194,160.788825685871,12110.4640674734,10676.7480927986,12090.7048570188,9.52268722736517,8952.98624613141,9806.84020230837,121.252997614771,18.5265914517431,38.502885854612,2.08790605171544,8563.09852162306,11498.0349809106,12642.9474468449,15182.8741741816,14349.5674312078,6.45669684333916,11251.9017446445,10772.8092639444,10565.7996330634,22.6394932769508,127.906136628441,20.6062518357221,4403.41779846085,10492.7332552109,11303.0384957932,12075.9249581603,11742.7647472601,15.3311475727478,9026.73514860799,11164.5380057423,8.5803471299987
,31,19031.4398518866,19842.5159954208,19981.5578519804,13405.4798855162,15091.016833183,13789.6605644079,13592.8576914441,13234.466072694,13693.227220488,11313.6229454034,12698.7787067606,371.160326678055,19410.1391266803,14789.2072825264,20196.1843377156,10003.2470113208,10901.981953431,10447.0435125976,10688.93602641,11783.2011553705,12435.5759958816,11304.2585257975,12882.5834306705,1718.61239834407,40.8836704414734,171.419414785584,4043.27995679375,8554.85408060935,9591.37029325754,10125.7202476305,12896.4053981788,13064.2137081854,15060.8314412785,11726.5172944313,13406.7651725512,602.260935397143,18.6120372003343,36.2021181787013,156.095072984813,4221.24590609138,12508.2117529735,11981.1406981601,9947.24665633895,11870.7758620884,11747.2693763503,11697.2536056258,9141.02032192575,51.0215743432991,28.7582618685801,25.3947575383027,861.251788272728,3754.08316768039,7408.04501345532,6942.96220498516,9854.73611735865,9941.24225399068,5918.61743465298,13361.6131202235,58.7089970679554,46.5178996159839,7.65875487968788,35.3008077789873,19.607496797591,8378.28262950211,272.99328119936,12348.4008498177,10793.4371428855,12183.7521505786,21.2166203032621,9114.37540491089,9979.2228882526,213.559704919507,20.9675087646756,74.9001872674617,14.9906577556803,10046.0059142957,11575.5353563068,12799.0769852055,15627.4080218913,14536.1304811616,15.5610247759478,11483.3647216028,10869.0550991468,10690.2530807973,32.8638682158762,225.235033043986,24.6829474377682,6268.55974717262,10577.7774648089,11443.8023205063,12486.8031958,11872.3106898292,25.1085902079176,10976.2774943933,12131.4528293298,21.8936428189736
,32,19013.7300662385,19978.10724786,20050.2453068374,13609.9133252152,15238.9539894174,13881.6094237115,13919.7775167812,13601.4281468063,14171.574755176,11384.0973356829,13413.1157599572,693.453569393985,19492.7956569985,16177.6307371359,20283.4783669241,10201.3310069514,11039.934904702,10542.1704117619,10796.284437047,11909.2082681775,12795.7902337547,11388.7682651437,13501.9991811382,2627.92317975762,89.9892137588913,325.905443819779,5863.75313124905,10224.1460779627,9666.38763627629,10223.4639642999,13055.1736741074,13184.7081359778,15710.4760854637,11825.8018885611,14335.1524197432,986.84691742197,21.5835435323461,49.2682215643008,235.888390865959,6650.13929243952,12686.5153018727,12239.4183853452,10020.7136770869,11952.3193752444,11962.7074951798,13666.1113418783,12017.1058373258,77.2575641795193,39.0737189407264,46.1768777451816,1216.75286609721,6130.66850659338,10223.7938895421,9913.07082436754,12726.925696403,12023.2231803089,9188.1143149624,13577.5694298366,98.3936153801724,61.3023168750142,23.7831270525421,59.0535627966919,29.682386954647,9953.82345834645,452.991758927883,12520.3230051999,10876.6678652449,12232.2175077384,33.9377712273608,9224.26361328606,10106.4682535866,337.330584544308,31.2687422880044,123.33892410747,24.2710120602233,11193.8272186593,11624.6200333468,12896.4833707875,15941.1293650608,14655.7817767721,28.5497287659646,11601.5938559116,10913.8302156464,10747.3758282794,57.5504532544992,387.586708277061,48.4966855369876,8069.25994199324,10642.8708084763,11544.7658442293,12772.3475182679,11941.739075709,35.0718495131659,12407.3840202877,12669.7632974051,35.3327751247762
,33,19016.8534878404,20241.9652467352,20081.8126827325,13759.6958668835,15331.8403425985,13940.4957645804,14134.3972009178,13851.4298430135,14454.9776877228,11434.7158995827,13812.2790541182,1281.54941145025,19544.4396262042,17260.7248698594,20350.7729893314,10334.2197881555,11135.6461595591,10603.7703394473,10881.0341301504,12001.7070240067,13053.8228497404,11467.9136304644,13915.6924977939,3953.8581031042,165.899210041297,621.262317999553,7923.9067601985,11340.9645689233,9730.60418744542,10283.3465764339,13160.3988972507,13276.7105949863,16154.6473169434,11895.7224769688,14936.5905779368,1566.79908064968,34.5852556590244,74.5540050591462,357.370359955597,9241.73690983367,12822.147173475,12421.2671629391,10057.0196789888,12021.8372152474,12128.9345543473,14910.0110914497,14367.3135263839,135.163745833433,65.0190606906654,86.6465580420363,1757.9275025899,9056.35664907292,12716.580398679,12452.1846602569,15042.322914252,13509.4949270504,12323.9994910493,13707.5201384413,178.08105397898,104.999313764188,34.0070002028806,98.6917396554318,47.6041978149015,11174.4284009773,754.359769369674,12650.6866878831,10935.1390074131,12274.3738623437,57.7962260468594,9321.59945668603,10203.3329565943,551.034128195603,48.3798212815136,203.344100293337,38.449388229631,12029.3768105727,11656.4969291809,12954.6853256234,16129.6201439727,14741.2996249927,41.2654929488135,11655.8589702428,10934.6375697663,10781.0550700485,76.3080771392224,632.939441982419,86.8549108757943,9673.34068975962,10711.2092568196,11628.6439833324,12990.3632274295,12003.8202394942,56.9982132722616,13326.7537055693,12967.1191864162,66.1495183846591
,34,19014.283336405,20488.0164355854,20101.3335475692,13853.5998661469,15407.3179049922,13979.3629284715,14281.5628371396,14009.3952997226,14647.4463187311,11457.9473006497,14039.7395027342,2249.87127808812,19589.9619137426,18057.3889512693,20395.1687074431,10407.595996563,11201.7917041365,10641.7986141009,10943.5803258123,12070.3259110438,13224.9080707293,11514.7746634728,14154.8002396426,5763.49241319525,319.148716485475,1124.61915958518,10230.1831363139,11927.9153696049,9752.2542470827,10314.9214473824,13232.7625022998,13333.4592858671,16443.5706637143,11946.2015257509,15263.0632954224,2413.41894369473,44.046924430786,121.640759708315,556.49095493663,11344.6759455336,12911.3579380783,12531.2664895517,10083.7962975329,12059.6855554447,12237.0242006862,15569.4260161206,15910.8841135756,201.895491361354,95.052725999446,134.449810121535,2513.26685255464,11708.5685559669,14445.9625647492,14253.4372837457,16598.8522177998,14427.1900397248,15053.5267015695,13787.3396541319,276.608087568732,178.602555472997,50.1431340951849,166.200547833729,81.835015850198,11981.8706477136,1196.47199107191,12740.7156717619,10979.6135649806,12281.8222176728,89.785823996438,9379.59728315449,10273.4430178524,897.734821428087,81.5167091588255,326.488243917585,72.4223984234759,12590.7243276141,11663.4882121179,12985.8552633124,16261.773678804,14790.0685704218,78.3030447604051,11651.3707147083,10928.7401529818,10782.2629064267,110.019410507979,1020.12998038309,145.982726148311,10951.0611347884,10742.6823291925,11684.2700522521,13111.6057809706,12033.2007758121,87.4313072112554,13817.8538507417,13130.3868034995,114.774757338158
,35,19028.1838570773,20704.259988756,20103.2697481525,13911.7226620255,15437.5695947686,13995.605740543,14382.080319054,14093.5486235372,14745.6990053791,11481.1865840067,14138.0522132697,3822.93299251534,19620.3006455599,18653.6412863117,20440.7221347926,10452.9196151174,11245.155227632,10665.5775477426,10981.7373838963,12110.2236888181,13341.442633129,11565.9377312063,14289.094306228,7749.34213774664,578.212703471399,1980.10446839825,12377.2400075613,12164.7470395182,9776.51099725236,10330.634784774,13267.6669307523,13375.9525266017,16598.7835170225,11971.0897742769,15443.71007865,3594.85194443741,59.5448276677953,210.29182041187,860.9335127893,12689.826516782,12975.4380860533,12598.3630638772,10098.1933575493,12093.1432979297,12302.5827680693,15876.7324610033,16743.7372860213,321.103156318088,138.886289244989,223.872903015265,3578.00438790637,13799.7233679491,15369.7142382933,15251.1776081519,17529.2187029199,14983.0555303565,17046.7962217377,13821.2673072232,459.799150706806,280.009101808572,82.4932853594473,280.410768778773,130.823530239128,12483.4366762637,1873.15631616205,12804.9265897425,10994.1619500009,12280.6546834779,163.93625920932,9422.83297873379,10314.903076454,1415.06054443629,142.045078367649,491.253941256754,123.689986443958,12902.3952407113,11660.3097937591,12993.5967391125,16331.4595765429,14810.9737106153,125.24037085577,11621.00649242,10899.6998124157,10766.7374321469,159.285216313881,1605.92719334285,251.442187147095,11891.9295839851,10761.4303447785,11719.8527308433,13190.6142046753,12059.6289533463,119.211148755763,14040.4498251202,13209.8311712879,204.177363423814
,36,19003.6600634194,20734.5008338537,20117.9445926087,13965.5692859237,15462.4577557482,13995.779863456,14448.2856587282,14143.6744009146,14804.2513633965,11471.1806006208,14178.450622286,6173.07374341709,19645.6460531867,19082.9083720703,20449.8932229108,10485.1568328114,11258.4826247291,10662.0230844132,10997.3914081628,12137.9288961621,13411.4466375035,11583.0992461679,14360.9476088812,9841.11570490492,1034.25628985143,3365.45732432728,14420.4505855761,12240.7812710949,9768.63508077914,10330.1673943654,13299.9596898991,13402.6526483145,16686.2601013095,11990.5608271372,15510.9077503704,5235.27706057656,86.693130386072,359.605456458973,1362.90764474511,13265.5372591905,13004.2087885463,12640.9843233195,10111.8930402542,12107.1259118388,12339.3892700548,16022.1670603248,17143.732709719,517.964484707184,199.022104729665,380.512278349685,5066.79402541595,15112.7936124701,15757.0140833602,15675.5232889247,18071.1012608928,15309.5713478814,18333.3889093432,13836.234901126,733.899711002983,475.370210101007,120.983766914923,492.802353797128,203.59896681482,12720.3521353747,2877.90729549333,12841.6810248567,11006.0742939958,12270.153645578,278.581151222807,9449.5083871457,10358.8595569367,2197.96465914528,222.360497667226,753.097479062054,208.059241290154,13050.9494930549,11642.3899981663,12994.6962138486,16375.6645560069,14820.705124246,220.307956252246,11565.848641437,10877.4886043962,10736.7697368602,232.677322911344,2501.69954774056,447.987081697862,12483.6286971167,10778.068819005,11744.8385969869,13235.0292385611,12083.1009654765,189.448768417973,14114.575210979,13249.491227232,363.408989062979
,37,19003.8122613974,20755.9008367301,20127.3662303275,13999.0057894846,15461.704273139,13997.3665852871,14481.4880809924,14181.1642251421,14844.4572432004,11457.1629847317,14199.1636054344,9079.02284395217,19658.0940657325,19394.791032846,20460.8263278114,10500.5941077021,11268.1241193562,10649.7241258585,11015.1589415875,12156.7610572666,13469.7269703649,11733.5843342041,14408.4040319135,11802.6893893883,1785.32727670773,5364.17958438563,16124.9342361266,12248.5678808848,9758.29884281001,10317.210958987,13319.7628746209,13418.3377456214,16737.777348589,11984.8684346338,15547.2447230086,7365.21429781483,118.133696568202,641.645360604969,2143.68120418832,13364.558318931,13030.5570625448,12667.2816427408,10110.3932790001,12115.3647657013,12362.9264366753,16109.8696261382,17331.1237719035,805.40425619198,293.190976999217,662.441600559665,7058.54052936247,15800.7455629918,15913.5790836737,15841.4695384794,18407.6459661224,15532.044897512,19078.9806625297,13829.8389119024,1195.76893025465,769.62296505028,190.714969480578,854.172171355025,362.465311361982,12830.1020921511,4297.6512991931,12867.955387547,11019.4917698359,12261.5216367132,495.998666906848,9481.67203783063,10365.6785565507,3371.23141482439,369.903717558651,1133.52835882075,355.908041234517,13083.9582835597,11629.2376915686,12982.1414364997,16392.9640612769,14831.7378856163,378.659788619914,11518.8018386123,10844.6483246841,10696.0721686715,356.330162842208,3815.20333252431,787.538905788675,12770.5387911983,10791.7221600855,11767.3676215006,13276.4611786074,12087.7505276473,310.813307649413,14146.127738795,13263.5484297241,637.187758163165
,38,18968.5495160886,20722.717394341,20118.4330897345,14021.6159235891,15451.1519515296,13990.1275289441,14483.599817728,14188.9947866998,14860.826848623,11409.3399168888,14176.3515283902,11698.1782658848,19659.6955130603,19603.113878471,20455.8147397418,10494.7305146315,11254.1764480683,10606.7331271093,11003.1810788393,12160.2622956027,13487.6372767015,11769.3720836314,14396.3681099714,13388.2863404832,3013.39284845364,7859.20021638639,17515.542698931,12208.9301907417,9722.16376174794,10280.9723632452,13315.4466195851,13418.6519286384,16760.1527372258,11973.7501155879,15511.4916920654,9506.27755715982,162.075718182538,1120.71338826753,3401.4609170823,13210.8325761888,13025.6862933495,12675.318095782,10093.1230630805,12114.6997814112,12377.6605870643,16141.3474862001,17400.163992149,1274.94024808449,444.644152023923,1155.03977841707,9134.66484917748,16033.5052599316,15954.4793761788,15868.9532015633,18594.7940931054,15650.7086066773,19442.1681513114,13804.1332594746,1961.81782109398,1291.65837568317,289.016879677797,1443.34903940969,609.210689755004,12844.6409119649,6322.4267361747,12873.3204448079,11016.9125434724,12237.9883713952,877.111964644204,9487.63200710869,10375.2483670935,5062.41194531803,616.367230644842,1701.52539613121,625.098399427981,13064.7662478895,11602.2202359222,12960.8254501155,16389.6570757834,14819.0368743944,661.14483695329,11453.6526795775,10800.1652880956,10647.6499077618,543.778264832245,5706.78314353137,1394.11823722491,12808.1598657465,10798.6626225968,11764.6283012266,13285.9120266411,12071.9322081997,503.733782721223,14142.0230194595,13239.2118230915,1099.8195423932
,39,18959.1345861771,20689.2515377186,20113.6427663633,14026.6231772085,15433.6380662088,13989.0599146416,14463.3649161329,14171.0817287793,14867.6402017687,11374.9231526558,14157.3447416709,13860.8109129396,19637.3776656467,19732.5818220665,20446.5451723004,10470.1657045421,11240.1505091242,10571.0681117518,10994.7325112592,12149.3126497925,13486.1362215638,11880.9720335549,14393.2812225479,14575.845421595,4582.82463719657,10256.3770112063,18438.7302921924,12163.4109906357,9689.0999891928,10230.9715610366,13308.9348680369,13394.5949464194,16769.4081087451,11950.3829783088,15486.2537134382,11584.6279640074,230.356966915346,1882.19724135108,5087.25220922001,13010.4644677984,13020.9560054356,12651.2814241914,10066.689308715,12105.818405101,12367.8140157223,16136.40692705,17408.1198461451,1917.97749810078,666.460824055689,1939.50008416658,11257.620975665,16091.3319012092,15964.6795065537,15869.1797225162,18699.9709104316,15730.3664592344,19592.1651265726,13776.4608361534,3066.19653838632,2049.31535198098,440.451430481012,2295.20026885476,1030.11236042491,12842.0410814465,8480.77004719388,12871.3221604248,11014.3766210138,12204.9746050162,1508.98808898262,9472.57251892476,10350.9119904017,7267.11029424405,1026.35134624784,2457.22519293311,1062.61620805171,13019.7270027783,11566.3576060625,12937.340268578,16374.4093170266,14789.2368568829,1120.92029224313,11373.8799178424,10733.0593953624,10597.0751265246,864.471759502694,8059.41017350038,2372.57162163534,12752.9766214022,10768.273349228,11766.3956463385,13274.8117041313,12045.3171612502,813.254981282906,14127.1194152263,13205.5953095166,1819.68621171795
,40,18930.235785035,20637.8194587531,20098.185158753,14045.1171423377,15424.0708041603,13984.5535212508,14421.517849735,14128.507973737,14836.7765001145,11341.2614388064,14113.2431863696,15523.4851323727,19614.019533202,19824.0020629106,20413.8807330309,10439.119034073,11202.0266862097,10537.845314487,10976.4032590932,12138.4307815563,13465.4528896449,11925.0311091186,14395.7387698303,15471.7056080772,6553.48862479528,12555.7099688452,19122.9353574704,12116.454922445,9661.50154871236,10179.6190097458,13306.7768526619,13356.5607681635,16765.1520130797,11922.2204849147,15451.3637860188,13503.3131722879,343.239680028457,3027.17149698476,7378.02969529687,12808.0480626813,13006.6216850761,12611.4699690502,10036.7194986921,12096.0897037994,12344.5254351886,16109.7961151556,17382.4543230337,2919.67061232085,1036.13903377611,3233.03225380705,13298.807608297,16065.5849642209,15932.4868251044,15834.0203178303,18748.1170208442,15771.7067800916,19636.0419515136,13743.5340814435,4705.69625143378,3224.13940047831,689.496898217165,3415.50369615615,1736.70339317149,12829.1442687135,10772.6812322506,12867.2899174728,11009.1913271366,12159.9367930856,2607.75233787943,9440.31067531233,10321.9995992743,9593.27506014971,1684.44069560292,3603.5050125717,1784.07882763162,12977.356500217,11523.6579072686,12910.725632155,16348.0249852812,14738.6252126506,1874.33080738751,11270.1287891034,10661.2647579341,10547.18766038,1343.35238882592,10518.9692555564,3795.42321395854,12669.8631825201,10725.3141812082,11780.3915750384,13263.4042646162,12029.6706063138,1332.60558522487,14087.6273756128,13158.1480246812,2866.12050995449
