,Temperature,A1,A2,A3,A4,A5,A6,A7,A8,A9,A10,A11,A12,B1,B2,B3,B4,B5,B6,B7,B8,B9,B10,B11,B12,C1,C2,C3,C4,C5,C6,C7,C8,C9,C10,C11,C12,D1,D2,D3,D4,D5,D6,D7,D8,D9,D10,D11,D12,E1,E2,E3,E4,E5,E6,E7,E8,E9,E10,E11,E12,F1,F2,F3,F4,F5,F6,F7,F8,F9,F10,F11,F12,G1,G2,G3,G4,G5,G6,G7,G8,G9,G10,G11,G12,H1,H2,H3,H4,H5,H6,H7,H8,H9,H10,H11,H12
,65,65.6887989470351,53.5690364119491,91.7679598507439,78.3295474398574,62.9421589053322,66.7302187368764,20.4894778702087,30.6270632752417,50.6481028571316,-33.9373040285068,-56.6222704853794,16.6438752971058,55.7101770546356,39.1188663115363,40.7606622048761,-16.3397359103715,-53.9555851790592,-65.0211224378731,39.392067804486,3.5694700488084,-92.0054332466962,-62.4402584944414,-66.4787729019363,-43.9492950031567,38.9639167605242,97.9670190172428,72.9737352755333,-16.1938382426979,-17.1222792754857,-44.0614278500279,6.44130842158438,24.901609782914,32.1154162793378,-56.7687958070032,-54.6145797703157,-9.65892107019545,-7.24553798976888,64.0135175219425,82.2411244192554,-40.8139117204455,-63.5131032111713,-47.4923256772468,-1.66223398901138,-14.2248693340607,38.2909221110017,5.19056759909199,12.4602117858162,43.3907999417045,18.3687047039122,59.6894706371354,118.011073027311,10.8421820755048,8.07134038545337,-44.6467050149176,50.9082362500617,9.13498744031085,20.1214370023299,-50.5815056582173,72.7302955133136,63.3348936062937,2.79400375741432,119.090071507913,52.1481315534722,-4.66608414498251,7.64397756377048,-15.4494783359992,-35.4623609790256,-75.1734878489515,53.0043769164984,-2.49901023715847,-0.468015361732796,18.4146807072284,34.62329896605,54.3354895199059,70.0101114432723,-66.4133157025908,-0.570754224328539,-2.11459322518249,23.9412451879225,-20.9555151961658,62.8964900969756,-11.1665011641071,-41.4708921931965,-63.0106750702944,28.7901381868755,119.027818826467,86.3507757158902,-5.30286701525392,-8.61348528509279,-9.44237440268716,24.3728264772058,0.302776995255044,38.8236131947242,52.7699573586015,12.2309308933163,89.6841988610452
,65.5,142.325731051908,116.066245559221,198.830579676609,169.714019453024,136.374677628225,144.582140596563,44.3938687187824,66.3586370963585,109.737556190446,-73.5308253950975,-122.681586051658,36.0617298103957,120.705383618375,84.7575436749958,88.3147681105606,-35.402761139133,-116.903767887959,-140.879098615391,85.3494802430573,7.73385177241926,-199.345105367843,-135.287226737955,-144.03734128753,-95.2234725068365,84.4218196478018,212.261874537362,158.109759763655,-35.0866495258465,-37.0982717635502,-95.4664270083949,13.9561682467656,53.9534878629829,69.5834019385693,-122.999057581838,-118.331589502347,-20.9276623187584,-15.6986656444999,138.695954630876,178.189102908384,-88.4301420609695,-137.611723624204,-102.900038967368,-3.60150697618656,-30.8205502237961,82.9636645738365,11.2462297980337,26.9971255359346,94.0133998736935,39.7988601918089,129.32718638046,255.69065822584,23.491394496928,17.4879041684849,-96.7345275323173,110.301178541803,19.7924727873396,43.5964468383804,-109.593262259471,157.582306945515,137.225602813636,6.05367480773089,258.028488267142,112.987618365856,-10.1098489807991,16.5619513881688,-33.4738697280045,-76.8351154545612,-162.875890339392,114.842816652413,-5.4145221805079,-1.01403328375545,39.8984748656562,75.0171477597735,117.726893959793,151.688574793757,-143.895517355619,-1.2366341527113,-4.58161865456304,51.8726979071712,-45.4036162583593,136.275728543446,-24.1940858555686,-89.8535997519252,-136.523129318969,62.3786327382325,257.893607457346,187.093347384429,-11.4895451997168,-18.6625514510333,-20.4584778724889,52.8077907006141,0.656016823055779,84.1178285885695,114.3349076103,26.5003502688542,194.31576419893
,66,131.377597894069,107.138072823896,183.535919701481,156.659094879718,125.884317810669,133.460437473754,40.978955740411,61.2541265504847,101.296205714258,-67.8746080570131,-113.244540970768,33.2877505942079,111.420354109269,78.2377326230694,81.5213244097445,-32.6794718207384,-107.911170358116,-130.042244875746,78.7841356089793,7.13894009761771,-184.010866493393,-124.880516988881,-132.957545803873,-87.8985900063103,77.9278335210479,195.934038034488,145.947470551066,-32.3876764853999,-34.2445585509731,-88.1228557000568,12.8826168431715,49.8032195658343,64.2308325586791,-113.537591614005,-109.229159540625,-19.3178421403923,-14.4910759795393,128.02703504389,164.482248838508,-81.6278234408983,-127.026206422343,-94.9846513544899,-3.32446797801822,-28.4497386681196,76.5818442220061,10.3811351981849,24.920423571632,86.7815998834076,36.7374094078235,119.378941274269,236.022146054625,21.6843641510136,16.142680770909,-89.2934100298276,101.816472500129,18.2699748806176,40.2428740046621,-101.163011316435,145.460591026629,126.669787212586,5.58800751482943,238.180143015822,104.296263106942,-9.33216828997229,15.2879551275405,-30.8989566720074,-70.9247219580602,-150.346975697901,106.008753832997,-4.99802047431194,-0.936030723466502,36.8293614144486,69.2465979320968,108.670979039809,140.020222886545,-132.826631405187,-1.14150844865981,-4.22918645036225,47.8824903758505,-41.911030392328,125.792980193948,-22.333002328221,-82.9417843863926,-126.021350140586,57.5802763737547,238.055637652935,172.701551431782,-10.6057340305042,-17.2269705701847,-18.8847488053707,48.7456529544129,0.605553990516455,77.6472263894505,105.539914717196,24.4618617866345,179.368397722089
,66.5,131.377597894058,107.138072823874,183.535919701456,156.659094879717,125.884317810665,133.460437473785,40.9789557404711,61.2541265504628,101.296205714205,-67.8746080570727,-113.244540970768,33.2877505941933,111.420354109308,78.237732623099,81.5213244097208,-32.6794718206656,-107.91117035812,-130.042244875752,78.7841356089989,7.13894009760224,-184.010866493375,-124.880516988854,-132.957545803872,-87.898590006263,77.9278335210406,195.934038034504,145.947470551074,-32.387676485348,-34.2445585509222,-88.1228557000804,12.8826168431924,49.8032195657725,64.2308325587205,-113.537591614018,-109.229159540588,-19.3178421403759,-14.4910759795414,128.027035043881,164.482248838514,-81.6278234408974,-127.026206422344,-94.9846513545317,-3.32446797797456,-28.4497386681437,76.5818442219993,10.3811351981435,24.9204235716356,86.781599883383,36.7374094078261,119.378941274284,236.022146054675,21.6843641510022,16.1426807708554,-89.2934100298648,101.816472500155,18.2699748805885,40.2428740046294,-101.163011316434,145.460591026637,126.669787212556,5.58800751482647,238.180143015818,104.296263106953,-9.33216828997138,15.2879551275005,-30.8989566720452,-70.9247219580461,-150.346975697931,106.008753832996,-4.99802047427283,-0.936030723483327,36.8293614144595,69.2465979320939,108.670979039812,140.020222886541,-132.826631405129,-1.14150844866072,-4.22918645038908,47.8824903757891,-41.911030392318,125.792980193947,-22.3330023282547,-82.9417843863926,-126.021350140576,57.5802763737638,238.055637652906,172.70155143178,-10.6057340305138,-17.2269705701456,-18.8847488053466,48.7456529544043,0.605553990452336,77.6472263894359,105.539914717191,24.4618617866322,179.368397722088
,67,131.377597894146,107.138072824036,183.535919701681,156.659094879713,125.884317810672,133.460437473558,40.9789557400322,61.2541265506293,101.296205714637,-67.8746080565998,-113.244540970757,33.2877505943175,111.420354109041,78.2377326228702,81.521324409935,-32.6794718212645,-107.911170358065,-130.042244875704,78.7841356088084,7.13894009772957,-184.010866493521,-124.880516989072,-132.957545803883,-87.8985900066873,77.9278335210988,195.934038034352,145.947470551008,-32.3876764857582,-34.2445585513092,-88.1228556998913,12.8826168430078,49.8032195662258,64.2308325583726,-113.537591613912,-109.22915954092,-19.3178421405196,-14.4910759795147,128.027035043925,164.482248838516,-81.6278234408705,-127.026206422343,-94.984651354192,-3.32446797834064,-28.4497386679254,76.5818442220589,10.3811351984746,24.9204235716065,86.7815998835833,36.7374094078135,119.378941274165,236.02214605427,21.6843641510854,16.1426807712419,-89.2934100296038,101.816472499907,18.2699748808168,40.2428740048708,-101.163011316457,145.460591026562,126.669787212821,5.58800751484728,238.180143015863,104.296263106879,-9.33216828994136,15.2879551278206,-30.8989566717137,-70.924721958113,-150.346975697733,106.008753833001,-4.99802047456114,-0.936030723357817,36.829361414384,69.2465979321355,108.670979039798,140.020222886578,-132.826631405571,-1.14150844864889,-4.22918645016944,47.8824903762629,-41.9110303924094,125.792980193977,-22.3330023279445,-82.9417843863926,-126.021350140696,57.5802763736772,238.055637653114,172.701551431776,-10.6057340304455,-17.2269705704421,-18.8847488055344,48.7456529544734,0.605553990943918,77.6472263895492,105.539914717269,24.4618617866504,179.36839772211
,67.5,131.354008540054,107.298434485069,184.812074197675,157.761943153379,126.204172995434,133.754873763443,40.0031463545092,61.0501043400673,101.622058096346,-69.2479650026689,-114.507191739223,28.949525151645,111.352262056168,77.0674367137949,82.6488119212872,-34.7279029835418,-108.894658318894,-131.017794442915,78.7538585711391,7.03844243494132,-188.783879469954,-126.666011979652,-134.247103421325,-93.2584038641176,72.2580351891738,190.227333673063,143.9036992169,-35.4351107293719,-34.4533513075089,-88.9034081796422,11.2928680435803,49.5965658822179,63.704946298712,-114.59067520976,-111.18838504954,-24.1869919643541,-15.6035680192556,122.314576171089,159.09287178346,-85.6407046844593,-128.154558121816,-96.4934001239012,-4.53451292049658,-29.2616965282859,77.0294292220351,9.0616969301559,23.509679286853,79.9080933770715,33.8268674399452,114.721264623695,232.458073010497,18.8755520252676,13.8894125436454,-92.7840134303215,101.424920429843,17.1964614398244,38.0714850586251,-103.36200795288,138.705783168447,119.290134653579,3.6088091804761,231.30370844529,100.471386583539,-11.5965908263147,8.08795920478633,-32.0288304882779,-72.315649779362,-152.63399687168,101.307326891034,-5.72194785940746,-1.08401270220838,30.7137328804583,64.9611639217708,103.904826880176,134.811094328988,-133.161517631896,-1.06536508139425,-3.67353337993291,48.2407524714686,-41.4343873283246,120.453084924341,-22.1551508193384,-83.8485601716334,-127.961051246729,53.5234314466904,234.684922053434,166.928859263935,-12.7034199160967,-16.5094704408452,-19.0609216301441,48.3377666469823,0.529810953807555,74.0676588696703,105.423064035044,24.3066056796952,171.817650119156
,68,130.234542443517,104.245117271978,176.144987387171,150.893703883843,124.298867210526,132.570149391342,45.7039310700466,61.4805460839275,99.0002805962199,-60.5159264792301,-107.573125503916,54.6396065262611,110.721613563938,82.5164027246269,74.5209709742953,-22.3426412137783,-103.241182410392,-125.674766836279,78.7373246487277,7.66143895980395,-160.426406926683,-115.971334454244,-127.132292943265,-61.6606936197159,107.081408372397,223.759760486997,154.072902163083,-18.0897599744294,-33.5840724813838,-84.8084335241551,20.0566073710179,50.5643238762304,65.0823200948103,-108.079779984801,-99.5232049741026,5.13513948029049,-9.13719081717773,157.149456844653,192.298219418177,-61.9549392691742,-122.116057383286,-88.1081373914963,1.91906063604119,-25.2303976316389,73.1418540535228,15.3790953835382,31.8366293576278,122.195439474049,51.6492125922724,143.15027441412,253.658145345034,35.6680115103441,27.7072801161694,-73.0225164023759,103.447185973841,23.3854982103389,50.002946890399,-90.4659689538685,180.558864788393,164.629734109663,15.4194331916462,273.024315596405,124.249165846065,0.597430303515466,52.0627665451575,-25.8477314938627,-64.0633283727684,-138.972858209932,130.026318567902,-2.4811826906307,-1.16949145268791,68.8266807713098,91.170069973808,133.497014607731,166.320154486235,-137.435205844265,-1.86374953858922,-7.9595379375528,45.2750652648024,-45.1846365988358,152.673507115079,-24.0606213038486,-79.2796752887311,-117.65843237461,78.4705979148252,255.577371971887,201.926877988668,-0.629704124531145,-21.5904319263295,-17.9863160241548,50.008106925744,0.901595150099638,95.8072839696911,105.139955947861,24.1314551071027,217.25267978338
,68.5,137.167748207386,112.63954781156,164.391457408656,136.992438807643,118.552296527647,123.865779768662,58.3579359894106,68.0660415653542,98.1319036057175,-45.9183167326446,-89.2190532858235,112.324718259222,116.000958425625,104.992301907392,67.6236978976917,2.98622931793579,-89.7474737232455,-111.238652233284,79.700217038328,7.12977864741197,-98.1333314115036,-93.0290931755535,-107.823388744448,10.9665594225648,175.980656360829,302.203161911931,191.598974573323,26.2117669279896,-29.4207936170783,-72.2086807889423,44.171113217566,53.2537588039145,80.7554084836261,-96.1749594958715,-75.4476966705388,66.6802761777581,6.7148547524223,228.754339860281,256.942380273686,-8.36779031537753,-103.700948438375,-65.8162662106379,21.5359690816858,-11.5965053682075,73.0170828779928,41.3234834879308,49.8461317646093,205.936443867195,87.6661834592188,201.085063863281,300.413826922114,71.4844512537152,54.1297740473351,-21.5066843797326,108.446265504281,37.7923505901122,83.1869395508643,-61.5213466657942,260.640986797564,255.264841944541,41.9053424032486,360.425468694851,169.415432260276,37.3100629504479,141.232520634954,-9.14222649555086,-46.1629499570859,-109.748436977522,188.67411923741,11.6174005414473,4.75306568070664,139.031305391482,144.877110941563,189.51818531168,233.328413425877,-96.8015405151718,-2.61847007275628,-10.4681112586736,43.9572865776686,-47.2936164343964,221.756956486698,-23.7094316343841,-64.5764763344955,-86.0153099293243,128.33436532748,295.067170783825,275.535467983997,27.2815352206298,-27.5426570921454,-17.2355837711652,58.7220327529089,1.27833922359969,141.322915609932,110.923932621638,31.4345127715951,315.181216816102
,69,159.193963360565,148.385855716087,167.275900141236,132.035666860371,122.284081019573,120.047799318883,76.3512826726655,84.4718699730738,105.290450208631,-35.3561468662165,-55.1153665834804,172.981962645474,139.359304349195,151.927016786606,72.2412629201481,29.5898287455143,-72.0357772868606,-86.891064866757,85.0571748201223,17.3194299184311,-30.1649163147354,-70.3497148055963,-79.042988810068,84.3347239861023,234.080800012459,380.841840446152,252.721247511615,79.7779351356212,-18.686873045478,-50.6012414270945,79.5230750716601,67.6087142022743,119.624719040986,-83.799489653687,-40.3711219458896,130.077564984671,22.1626560603863,287.053959578549,312.269934865535,49.1537496702545,-78.4056323317018,-32.3952065403619,50.4619735233746,19.2415490436588,90.9059091961271,81.4979255942812,73.5867159737177,271.89803103401,116.698751796503,249.785197055589,349.601078680283,110.767021882043,82.5923499494829,40.6569914076103,128.461340640769,59.0333021799888,131.870171334075,-23.6361186326558,324.313294025869,325.15783957758,64.4633701296844,433.810498691518,202.643996189061,87.90086974829,216.060947611972,19.9389166243991,-24.9159945597389,-77.2961297430215,235.571858933316,44.3978083945303,28.3182290642008,199.074814711765,185.050856103622,233.946310132696,288.957071256086,-3.97045464402117,10.4619892074775,-0.76376551455769,57.6876942120771,-35.5383387332563,280.392234818388,-2.69115792392222,-29.4456021700803,-37.0507579821665,165.62445315579,328.29711773913,336.851484351247,72.1138831026592,-19.9602735568815,-8.83483825423536,79.4009495581822,7.87960460978911,178.42000781119,133.046011089562,53.894087638058,402.740543107863
,69.5,187.461845757509,209.445738934565,192.722711082979,142.369357305681,144.198015791837,131.85602686316,109.570359507768,114.315356915856,124.094276235846,-13.6513513308983,-3.93716821218095,239.640532344576,188.50053291955,216.874289193604,91.5696641732688,69.4399158693409,-36.6650519163554,-41.789066629864,102.236444355426,45.1986464282445,58.3559224185219,-37.2967891755834,-30.2303989932125,165.465301658806,289.75210210604,452.868362859591,325.171507508816,145.625715307654,9.76974747295617,-9.53962832748493,128.804620846133,101.923610572829,179.831299451273,-57.4623345741993,15.9135269257404,204.175265214697,35.0082588196601,333.881794823105,365.650366161712,122.059902475257,-39.2619336146058,18.3027465429104,97.1841055720693,73.3629173756676,127.579691188068,134.186542062497,117.502304895802,328.965516870241,138.997624481521,292.786820863167,404.12990409599,168.30757730191,126.307437589988,113.423580803093,169.760996855201,96.223669833048,200.243004760326,29.7133903793288,381.077071082615,379.675911259419,83.8198788470177,493.657053389343,230.943520278701,152.708210230982,292.732257896644,70.476877282561,8.43481495746255,-32.5069049215331,275.604088824342,101.406117079377,75.708476328437,264.112873965194,212.84238633734,277.633450835461,332.06276271376,102.350197696909,43.9268911713061,27.0824930223275,93.499209121524,-6.0352997735572,326.327672634913,47.1623036609903,26.7621572013045,30.2296055510778,191.996791064662,367.314755098899,387.209710725792,144.309156433097,5.02701296522719,22.8154865685724,119.389950745304,34.7172948116468,207.145116087255,177.858675594711,97.0618066681145,475.433895376253
,70,224.246548332128,285.404695529439,238.981823718483,173.071925587404,182.116547788794,161.551581529675,162.943763428272,158.015181650095,164.311104812006,22.86075410375,62.8121459885797,315.803946299783,251.598989970784,283.871159426642,134.277472079305,116.375770812399,20.3668347163575,19.8968242380042,137.018380423511,90.9056157372734,162.165864662562,10.786485248821,38.9226185766788,251.691168811094,332.506901830628,510.56788168531,394.730718759716,216.39234038045,56.0858792560889,47.2558066698675,189.377469619606,153.25826376955,252.761782236374,-11.8603994326536,84.1795805323873,276.151441238469,46.120776140264,363.064225714271,408.370289805741,202.350965380359,18.5183502293658,80.440245151794,160.724723983505,143.620686968537,178.86466710152,197.299205504216,181.343368624232,366.156933755329,151.909808188761,322.728909107372,458.506306428719,237.100657977716,183.400406622582,196.553707675793,228.927618887623,144.504264689206,279.541914159575,94.8552666974501,424.265497012457,412.621930601861,97.6219012032464,530.159063275816,248.1743709058,225.788333218047,362.413340033535,136.381990963052,53.17214999523,24.3179683701765,302.985329622106,176.145955258041,144.875046098154,319.296749952769,226.594919613449,312.101795325746,353.805126354118,216.585307633639,93.3064033751734,80.1690601204105,150.951631370256,43.6285861424349,348.48934182883,111.50893708674,95.3162751382652,103.569103473743,204.26955854873,412.281376414201,418.558717746981,229.219339898209,51.4447542931412,76.9614539368222,180.442827610182,84.2221993989547,221.637169443728,243.372165989701,160.335390748645,519.908297696627
,70.5,269.657549322245,365.209065632396,294.708471897047,225.672795977118,234.25764355553,210.614284285552,222.019107209312,214.515743356611,221.034015014772,70.4662045291848,144.276348425679,390.159939593264,311.020699810691,346.061513417743,186.237984711285,162.049227153019,87.1840130821342,87.3341844923807,186.716512163925,152.091885248764,248.558014903288,71.4843289241389,117.548497110521,327.615439598094,359.513314948625,551.298904565439,456.835309387774,283.306297407756,113.669282899292,110.827702936267,251.086625421283,215.023038480078,326.040027804735,51.0556702051767,157.735413807217,330.589715028294,55.4443724921689,368.312641452394,439.594755867677,278.437964634777,88.2670900620556,144.789392408901,226.695943931791,218.43544263374,244.689982934972,267.298994155138,252.5914583585,378.706633503493,155.401104319019,338.198505657528,503.485902440117,302.019167623851,245.704360097097,276.409336162773,296.029194104676,181.554084603784,354.130184492333,166.81998954904,449.154889452047,421.676584716455,104.064044292684,533.99896584233,249.337340410944,295.879532142806,419.988211822475,205.991997691623,105.953430202538,88.095268239847,311.490584632503,251.52029053308,224.255138407691,366.338458546869,225.195668167383,333.884733380338,349.090370128574,322.006125300029,154.344863473653,147.607841747414,220.695893945436,108.8317407226,347.718357201788,180.810026872804,170.098832547603,170.823438678537,203.39078684295,453.771568503262,426.594779115011,305.252825131868,117.1993390341,144.363164973906,251.855351323964,144.203775857793,220.052515426377,314.032415441279,229.894438281998,529.612856021688
,71,311.431180699998,435.336973484685,352.862766581426,285.7759454745,297.000703470561,269.799735181291,278.419238536564,273.661676650377,279.580138143709,128.648459052304,218.710955713048,444.568760984183,362.101994070333,380.545521645652,242.177953435142,209.937083016812,150.87674260246,154.765200573339,244.354211687621,216.797856619553,311.891787238468,135.24474583075,193.081784087072,386.718168860892,373.930865234367,571.587316039114,504.309699376372,338.666047880331,175.310798403127,173.97829270645,304.049856902769,280.190199733934,392.125007571356,119.96357245656,230.516433757203,367.649275932457,62.4994495759021,351.60545306817,460.615041959044,343.150505834141,154.856621362859,202.913574464513,286.832915926753,286.044601788345,311.823010153639,330.118352764316,323.14655918181,369.244230173794,152.95599894627,340.528559653657,533.472380710603,359.519065030642,305.98329013862,342.120021792668,359.162031558159,206.752423804006,417.529520474909,232.601301993739,455.880249578905,407.572068370864,107.376436259381,504.901808434368,238.417929787268,357.945072063065,467.081001281416,272.117248628083,162.883076262804,153.939396236616,304.894099281828,321.205563124725,299.337676951031,419.095724279777,213.035979386288,344.515602722742,320.614731124523,395.584968488005,216.580445797323,213.898775467654,287.849798263822,178.806040153484,326.564680193914,255.374181191013,239.483294873791,228.858902318466,195.240340415976,484.258929956356,413.664104006797,368.006654872318,188.940079698502,214.60422447411,318.600196724334,211.454330125272,205.965280778724,376.426466953986,292.530579357204,502.754099261231
,71.5,346.033987701526,486.811296932448,404.432310304024,345.398804427539,352.730649915735,322.785234685668,332.841232881539,323.970442795843,335.63511212238,191.405740379113,275.054678625056,481.566153721159,403.073852986115,387.834287036225,317.979817976399,251.592204217325,207.360634657085,214.090497026934,302.041999341607,277.925456787962,368.470690289932,194.209886226776,260.832984619863,431.588810206725,370.396621434105,575.012578914225,533.739300947474,378.053764764818,232.299206728485,229.790021955002,347.671401913947,336.906374108191,446.918327710726,185.398608072313,293.229320994337,392.80776122596,69.206291995374,321.32141964112,469.334062457309,392.947294037175,213.735520077194,250.703349476276,340.427807970337,343.753344943188,364.595348309022,380.985715370685,386.682495341198,342.545718001503,150.257448094644,331.762077590554,551.265037343836,407.231716492716,360.167133484402,393.693141919045,408.947058134247,230.816878645265,467.069545142203,284.875734563866,445.984230749261,377.385741156117,110.002266730767,450.576876972547,221.348319816322,407.669643244207,502.476273731153,329.804704914324,215.829751171572,213.365912199468,290.258437829487,381.842503776183,365.136153511085,464.46469849655,198.271580584864,343.271393711613,275.65617704832,439.807394059877,272.302424951318,276.93248340396,345.041747627572,242.57267013507,286.433146572605,319.125205479011,295.096406078672,279.410734041646,186.043175092121,504.24627645287,387.634904831424,416.409521756091,252.433943512041,280.855960271728,375.008659003846,280.593318669985,185.684376694512,427.836266075155,348.685711255276,446.25562511216
,72,377.397383499129,520.515956514892,440.969714640526,398.481010590192,398.220312452399,366.562620258311,373.318857742802,361.723670122597,385.38051224813,245.75812372419,322.62574831951,506.280598724296,429.818246149594,390.239422632591,399.432550406475,280.837620017935,256.286249630987,257.201648156099,351.083736962521,331.205224644207,410.581560142034,244.067273997583,312.926484634557,457.173028326186,356.746865166438,571.101616478012,552.929146817346,403.240040129523,277.410790942717,274.779203132315,379.929216806583,379.209371272942,485.034082849876,241.989944673821,342.750862502314,401.694067196938,75.7727171676796,284.347303213251,469.708531506806,429.53948817013,265.169986466185,288.305406011439,382.548521009924,387.960738939176,406.509117302373,422.744201087764,434.285389787117,307.121941367946,149.352359576056,318.805903916797,558.294873946506,439.712131749143,401.715613123659,430.720274598559,441.912359424922,246.93226133089,498.562459447031,325.479563052755,424.850713837596,341.391514093373,113.300876848973,381.660222872045,200.220987753825,443.731397357384,528.567228337117,372.38255821407,259.982069010919,259.997880615371,273.768286503928,426.96047880213,416.658935431059,490.141113698513,187.306097458451,333.801465991139,224.080291980005,470.905792999172,319.427573428505,332.551591290688,387.4698684099,295.643501490429,239.214083350694,363.700999569694,337.28988506312,314.065921045672,179.68810135597,512.786121775699,358.21446612031,445.887188836349,305.055117196289,336.610084391721,418.772030107242,334.439647717717,164.431161809216,463.538979027435,396.54710227806,374.449339611507
,72.5,400.166863311301,537.800826260559,460.452511897284,435.343201523698,435.503598155019,406.348773606177,401.353146919873,389.582507272829,421.105923069084,290.494759672652,358.999202243212,520.762473948907,445.826654260309,389.491568679666,463.024738657854,297.78764736632,291.088868795708,287.893339632313,387.360941962867,377.264996871701,434.699757988315,280.846636795647,342.91105906745,466.02313605467,344.799663637185,564.488317677788,566.100294554832,418.481443167114,308.427940121697,308.764583690848,399.631866153465,414.562099291916,507.583863635917,283.675965469331,378.166382046059,403.68254226851,80.9331715530726,248.155557881597,468.096119873805,454.48397388113,303.833277354898,316.593369150464,412.722395551367,416.669742511642,437.124663264562,450.513517987651,469.153894621468,276.732325292464,149.816856633583,306.72571056503,556.056476670241,460.13882893306,432.861055197148,456.653893533522,461.658245096556,253.915635016852,514.004090584813,355.334243212222,402.175905722703,306.467908995288,117.340502211764,310.111590251169,180.245839925681,468.306425818679,542.603578888085,404.065907290586,295.841959873541,297.763421204065,264.382059721592,456.498836872286,449.595118628658,509.239995924886,181.334423246918,322.467205791149,175.286264162686,489.664764943021,357.609559408081,372.052824568225,413.806629467462,336.620524940835,195.841911227259,398.687264820931,369.643734724648,335.03040834198,176.008430630061,510.182192022339,335.519979274054,462.908744940907,350.977633842947,379.787689899048,445.17662761414,372.15366664614,146.484830017842,484.341049863692,429.079203627808,301.408581618452
,73,411.553847909751,545.349373091286,472.816692379025,458.335233994366,459.890225821182,433.173743261626,423.562973814892,411.856984215881,444.253615136731,327.716883550147,376.689487445888,527.924282568003,455.956373357553,388.546007774979,511.39266386883,303.746381469791,313.193995543694,314.243333471813,410.004139074711,410.006847185893,452.595466855159,306.712255906597,365.621623879942,473.495760727059,333.414697565109,557.971143234573,575.436583963469,430.234083203256,329.608395703689,334.044059424174,411.874173650442,439.642815595534,520.570478051663,310.675253101143,403.920007253808,425.58889693925,83.8727147358269,218.068927700823,463.920756512904,474.007993436212,330.383001161626,337.583537669602,434.313076937822,436.820049416758,453.671319043738,467.705553819067,495.010374179462,255.169016373235,149.393851489431,295.806263630937,550.378872803666,478.38676914257,457.369371223358,474.176854895751,474.262521219753,284.965819372637,524.510316406076,373.650338479049,380.282106391719,276.252984253436,119.241698834991,246.293001023108,166.037485781051,484.240327121494,547.694660401648,427.507014216291,321.828932724966,326.706155575275,268.802240740178,477.083697750036,468.715072541322,519.313556127781,179.364261160025,312.365345126269,135.838496502326,502.0623984533,385.798495998757,399.676179503797,432.473500088205,369.222110399101,157.668303780146,422.261372418363,390.39854853434,354.20221218683,171.837387365796,502.891959254704,326.14475896455,475.215424717201,383.299241756409,410.327962592041,458.966044677374,404.083365987872,133.446850262631,499.866679582343,449.780146597576,235.581302309303
,73.5,417.929938409424,547.329519171949,481.151118622991,472.591062990712,474.363591155745,446.447137480409,436.383798223093,423.383458878798,461.416722193138,353.073403479007,394.096615710715,528.074612212234,464.794599673351,418.660317000755,543.437783613235,302.394830972313,330.948847413934,334.986834883531,421.383003430181,430.219946825001,471.760789318545,326.112858103425,385.878982734754,480.341071659326,321.853123061371,552.421342804052,581.460312645382,422.034234784704,343.107478491576,351.47153024297,419.300863952317,453.870906728304,528.249108174271,329.010356909776,424.200903574898,459.280434654343,82.65117047867,193.839065808319,456.298777860575,491.657031466233,349.467404491032,354.06727520907,448.625312692119,449.952549736786,462.769211442148,479.608627496496,507.964495366182,239.512490449663,143.545029912844,284.449730199589,544.945487395379,493.957140623564,473.832068137689,484.758014734795,483.921756345476,335.294497188645,533.326565497471,389.196372019796,360.604129167677,253.658400875271,114.9602726576,194.530969508824,154.48106743312,495.18847901033,549.45637176035,443.118131322051,337.206610562765,346.421741974777,285.419851140704,492.915569149895,482.208847400522,513.653820928172,178.935335195325,302.828397126041,106.535437069187,510.957909529098,409.632336214912,419.763068536564,444.99687753361,391.58087162013,125.178271050989,433.050428802131,406.133910153483,368.577379929672,164.094725907305,496.007285594798,329.905999466429,484.515250375186,403.165881898937,428.972839959015,471.850889954025,425.33016938879,121.865049675429,513.980623786622,468.593724034592,181.5900522839
,74,421.941460024414,548.195839245217,484.172218406899,476.446685144007,487.512954591833,457.440771076611,444.354826677686,431.210587558634,472.818098518389,368.476046976041,415.926008890364,525.629525052136,470.221722285723,468.890074423509,555.391221587664,284.06291608918,348.901692627327,350.073869750772,425.411622578549,445.817994321454,481.982326733389,340.272979736081,395.925603636682,484.601470263656,325.243804667237,546.002185194181,583.507919651775,401.413478369242,352.986740510171,365.033877231662,404.119828436158,464.084284902337,531.218097173819,345.103106744328,436.055742976535,484.69993689992,76.3825718366303,173.067852758081,445.888838695043,505.555254071565,364.465460926388,368.963278611096,459.011563481511,454.363520602101,471.501797893306,488.812474286937,516.203145543414,229.137174673726,129.597140746822,271.280955699707,538.940418327294,504.654833977997,484.457114975195,492.139348103088,489.929454687122,373.551146408297,537.504787041798,406.474410129186,344.169643791984,236.98879682583,104.355656312346,153.275208040513,143.447866236008,501.75688836521,548.47058324202,453.570667372483,346.53027528849,362.407537183135,310.91323985709,501.598273987829,490.468894406283,502.709148456241,175.999293786508,293.447305523574,85.1518229503168,515.811990864995,427.24650949269,433.745930782195,453.097964898543,405.779318787841,100.717369219026,438.976374380776,421.143619650843,374.133739123492,148.949869640118,488.959354852141,344.032617572287,492.13005338992,422.457831277437,441.793229428595,479.36693545118,434.727972866877,107.960062659265,524.939851357037,481.877018718586,139.873119309838
,74.5,422.930478763973,546.513356171293,488.461697811937,476.812507059474,497.106138045647,467.521827907369,455.201816628035,441.651787360206,477.853988122255,382.639455299767,427.718387270248,527.539861839883,469.984596076414,506.449168228507,551.953403225135,255.99700626988,363.07410168278,364.805883685555,428.433294128222,455.21608789916,486.459034796521,350.079029240344,406.270953513473,491.102990969207,337.827419395727,538.020066851137,583.727961157313,389.211432342723,364.24865363772,376.498183130375,374.436473030995,472.383461072272,529.554820301163,358.366933320387,443.767739939756,509.08603986337,67.032293722104,155.138577198206,435.455169681449,515.232365459685,377.68236228923,381.440840978921,467.85293833607,458.134318117133,475.002775402031,494.748572603159,525.099121159134,219.861523324054,109.540844662032,255.060427978824,531.96348055004,515.703740195939,495.294369504677,498.937698215904,498.421763146422,407.239059869489,541.643963726374,419.169422822948,331.103317912568,222.090117162012,87.8122771228182,120.190104467542,133.364674137886,505.754403609303,542.000301660179,461.592396916744,354.83222231747,378.128793509462,339.536654047643,506.156597373453,494.18097344446,494.309200771918,166.093934724348,284.38096561321,68.4966112901805,518.453934502128,437.532997814311,443.125398142474,463.315151907322,417.143031901499,80.6544069625999,443.734219435039,431.281806871385,380.090232989869,125.127112795839,479.867982461878,361.133531087684,500.331988542608,441.753303586097,449.510481433407,480.898253633429,445.043323884695,91.5739673692215,534.888757734226,487.211821776684,107.223004691195
,75,422.915664195379,544.240142354842,496.015523342707,479.968789351949,500.026046113388,468.773983968108,459.547437947081,447.80601253392,480.177340191196,392.8714600407,432.990628347405,525.709005875973,467.437282410934,539.769800328722,543.183663535334,239.570204099038,376.835333797299,378.460622238169,432.265268208458,454.000618591883,494.783795765554,361.6686566912,422.528570184274,497.251521956528,345.429474186235,528.22308021505,584.76196969587,381.481429025424,377.825527758745,387.823559457082,348.480154940128,474.59734215533,528.444684435674,370.812894884287,453.447435416129,531.899019918524,56.0593766914878,139.411198840013,423.770310514691,524.926356381812,387.346314539553,390.851537568899,470.939307904212,461.466740629214,475.492891817321,500.966522492627,528.357977861868,209.46057353154,85.5326146846371,236.393327022085,523.517998902167,525.308812818145,501.057245447912,504.146702657186,504.765163683263,437.233591228297,545.870985350635,429.331313245953,316.80596710093,209.023663865423,67.9680812376928,93.5240655663455,123.547255043587,508.58586835238,534.44872819216,466.972888107805,360.956143190676,388.967758580618,361.654750605853,509.374219328602,499.248287263314,485.244500008603,148.606794182019,274.809620386122,55.1931548320397,521.756459921138,445.276940080359,451.281755060179,474.662519381266,426.686322176495,62.9152029213062,448.470229528482,438.361359573987,390.222742392216,97.178618245008,471.507424382194,371.928785340546,502.638179057677,451.650889415891,452.34526453459,484.306087722093,453.948775619898,72.8287822898698,544.816216006759,490.363305343875,81.3664971271019
,75.5,426.533665733183,542.349908485517,496.817406522633,479.293469998249,502.15786866146,466.982028015469,458.095897603489,447.627839564545,481.422358276633,397.382189860474,444.559596178485,519.731439781811,463.438267012605,568.304720987192,537.012937096602,234.363096462987,392.069604670954,389.090619086291,435.915221184483,452.420952044975,498.994698341537,374.378031356447,431.39718405015,500.085942255808,351.907497259408,517.137888473579,584.001616624131,375.422413280296,390.072340332602,398.904462461833,324.843659821293,475.322152209854,529.771713527139,382.59655663747,460.226054909528,540.467819519842,44.9860471102933,125.963872717481,412.3183472829,534.601840989192,396.381414544598,400.289407464433,473.250864793524,460.45189457832,478.923113156018,507.854755314338,526.619294989302,198.327389902423,62.0028722131054,218.645388858371,514.42339436466,530.651517825287,501.419558548057,507.420697690734,506.863209760081,448.854619262136,549.240928480318,440.725144281585,302.836612519221,197.914488938146,50.1522850321938,72.6620972146234,113.311266345635,510.736696926171,528.688274449471,470.83940017321,364.40712453975,397.536189042685,368.739535524392,511.034754660048,503.896220610328,477.732569191433,126.329082452187,265.276600676424,43.862838180168,524.68096787369,450.680905943672,457.797692279911,479.708366540021,432.980812980281,48.2261982345852,454.932706392422,448.003895853229,396.52035058766,71.2490165287747,465.677532770851,369.003403933363,504.984915839397,458.24434991227,453.019537194652,487.815059432843,456.07764177037,53.7040990983124,551.828175065836,494.229907325869,61.2480605729543
,76,429.26476084152,541.956514169476,491.532584584389,477.622678034842,504.709575273423,469.187141627493,459.53229467261,450.28977298682,481.751618032746,402.557895607702,452.307025531247,520.054737156425,454.297893359513,577.118143150609,534.357692084209,233.298447442899,406.090335525174,398.395959728327,440.024030833326,456.392846540743,494.592621819205,384.133151950945,434.548508336184,498.919060515413,357.58905667577,504.696236159024,580.525971953295,406.302174030052,402.103472935872,409.921585299277,306.833490115921,476.164641575824,528.831818251062,391.817960089712,464.11495612062,536.791192290286,36.044026706022,114.865708216411,404.006740480747,542.97124182408,410.597144378963,410.289034038622,477.581168665713,462.476405002237,485.404968249251,512.463124359792,528.469319379978,186.918194491697,44.5659815534311,202.927449293513,504.431606058852,534.640534341997,504.34235046135,509.975209941978,509.662859465373,446.974909866221,549.899715875262,450.437361979546,290.932859310703,186.927160475361,36.9816842047231,56.5618570256413,104.487601127872,514.554502581116,523.981686602809,476.169468060003,370.490969427002,406.215428614986,355.588282298212,510.426088251972,506.180462390528,471.606940392779,101.464613610743,256.811131647973,34.4812677956783,527.314375859942,452.144051582246,463.405768089674,484.078777865347,440.739670100343,37.5466105376871,460.883431754304,456.537364309659,401.268062258287,49.3947615246688,458.692492291108,347.486117425078,509.906869251242,463.140482555254,457.185580011874,486.743593770511,457.163089333112,38.6129833945587,555.461700132428,495.21506447056,45.8150262910691
,76.5,429.388570880613,540.549503422394,488.101315345379,478.767004854934,506.136068171988,469.479680238069,461.587047563662,454.020759897065,482.250756171672,409.5896384405,452.712037342991,523.288089331746,441.788520308662,570.651193806764,530.594801076898,264.979623224503,419.810857897513,405.98366816388,444.473995329173,457.596216358508,495.535475936565,394.487444828019,440.420316456312,493.111143003083,355.990286229789,492.085487157074,577.905092866104,463.855165016574,414.387493726541,419.802975621863,326.951640031229,476.627754695277,526.386016239827,399.085934391418,470.781519755398,533.02371638294,30.6059525966751,106.607282124775,397.35104320014,551.027571426667,425.278909602444,416.334250060853,477.319039209812,467.841188881351,490.988462195297,510.916023487499,531.889998247142,177.131647375994,33.0488287838684,189.95462983752,493.839921032021,536.830818255178,505.421410300234,512.787418794722,513.56912697123,446.404437486939,548.001399440011,456.910107119455,279.076068642375,176.65088814108,28.581208245326,45.4956066943811,97.2573850862207,519.640024269012,517.237637950824,479.843290827392,379.291806547797,414.512821936724,320.282364427325,510.139742194589,507.750557204075,463.783552134238,76.6182694379067,249.477213304318,27.8982726048555,531.28610163472,453.598172585563,466.185133165155,490.396570552558,451.43681187265,29.849160365693,468.16059537614,459.800952137109,408.065644824335,33.6117831444268,449.515630223071,306.1846425635,513.199200067698,462.277201635881,461.780672116763,487.426867187619,459.730085900068,28.6959404355417,557.581384804384,494.778832846639,34.3305510439243
,77,428.547508696966,540.069996723584,483.284715215985,476.929327351193,505.05397725367,466.257970637817,460.235247106562,453.321002729045,484.358968219985,414.814167854413,457.091254988514,519.822530786771,429.470955550366,566.754318840252,528.135904558974,320.24022401493,431.605282948992,413.714744003941,445.773709419222,458.459223433041,500.842125300595,405.105898840977,443.536256322363,489.772359240249,348.585972967755,481.427857095674,574.036880537254,508.383058767945,423.174384147962,429.267055186741,373.670343126726,476.891513282274,527.425141712823,404.097524438318,476.480379842784,527.677760274241,27.4200579881608,102.076974506094,390.151459715979,561.292260069279,434.352615250595,421.750685088175,474.576170326806,467.662253016809,495.723859050443,508.266955388454,529.575875135931,171.286352370116,25.8518807212927,180.895216236896,484.091230617256,535.208585716322,501.955005804586,513.179528263248,511.230733521743,443.952123278788,546.924325416468,461.533506563243,267.553124134114,168.210780585196,24.5171349389386,39.6282277525256,91.2017140963163,523.97301872843,510.057146575754,483.338847799304,384.90614318901,421.523031124949,267.791603765942,511.341554461532,508.598602903669,456.936362038394,55.9017330088451,242.837680780682,24.125459032199,534.061057769854,456.795227962651,466.357050938026,492.736509555347,460.279709556793,24.8496864534803,475.283253869145,464.339813095507,412.563409462693,24.7006147069856,441.67792300977,250.389136553693,515.054347380705,459.430809242798,464.072766087379,491.287169134464,460.699766925354,22.7771004084024,556.78137704989,496.633743846158,27.4255769063566
,77.5,426.690662879634,540.571937993167,475.725724557868,472.870361443991,503.733442279398,465.308092964154,460.10448168482,454.780777797646,486.354767636418,419.478947778078,461.825481182941,515.890823783701,414.192537004101,563.399247673241,527.676675048567,362.373760075791,438.814758727576,423.265601809776,443.603473851494,463.972588811297,501.016355111507,409.982616840144,443.368528029275,489.220588681307,344.279714644412,472.268864703514,567.196983282098,547.918419211727,429.717198246059,437.155126648018,413.610000749044,475.930537640882,528.865972237091,409.201099219117,480.472881555761,519.594510581821,26.0052290490629,100.371535640361,383.821486553271,573.348603414572,443.950028389971,427.784309840599,473.403651861136,466.509311524264,502.006519595967,506.64955254834,527.526816069378,165.510745799215,23.4672764161775,175.310027644201,477.764897667401,534.29889749141,500.290026608867,512.901676630284,510.707975917638,441.905207627469,549.357105203902,467.141024533732,259.65253669321,161.469563619473,23.3006809066203,37.2202077543133,86.7892164245989,529.600871856401,503.663646301748,485.987898720779,387.581679911014,427.088661871322,207.00145942591,510.666536628364,505.783775783171,451.885561318001,40.5670444324297,236.670747223548,22.0988368474958,534.705469564877,458.964155696008,468.067209049876,492.798079827715,467.213349530142,22.419094603267,477.789706902712,469.835495305478,413.72962164626,20.3686656911005,433.965814429117,189.076678261377,522.773311734102,457.038634434573,467.036894555923,492.168727607171,459.059610210933,20.1207191767983,553.166433528269,499.085079406122,22.9771278937578
,78,423.55629985024,540.171567031672,471.745487353729,470.570993681216,502.812733926918,463.722872415978,464.633441024462,456.084375194235,489.256002980501,425.383567640373,462.66660563635,515.980361111269,385.040246907615,558.265428481508,524.434239523922,396.755339469833,444.35958356711,431.576190851032,441.514523696054,469.935205321412,500.027752527982,413.515663110951,447.2604627667,485.529450502671,342.517061543731,463.75499802716,559.491555623953,583.971069917427,437.183130042955,442.593542941945,449.593101456143,474.678008195703,527.214664311264,415.871179322008,484.97610328297,512.468038692582,26.3006806511436,101.184477347899,378.349821259578,585.512165579714,455.002437125334,431.04638291311,471.852952682877,468.898142967586,505.977031774607,501.86266251095,529.563382612172,159.39330546969,22.879762789321,170.163261245069,473.16175986838,533.928370034612,501.538137914197,513.064346619732,514.219971115002,440.504218425173,550.873032145488,473.110982882853,253.724937659312,155.481414653376,22.6942079676608,36.0835060975439,83.3370042025233,537.728549277813,496.425030323049,485.711314894043,392.866236815457,433.151538805442,147.603206193448,509.580614953332,504.079027555961,446.878294209194,30.0416033171828,230.51588009177,21.6330712730712,537.362566406441,460.241987399145,468.96337340538,493.991966564111,472.594562571976,21.2598141778851,480.084570688661,470.918640031122,415.686726606861,17.8802203483709,423.985039122228,131.829341911019,533.958360052891,452.847726550487,468.990418540696,493.380648969873,457.541748545963,19.4902918361292,548.882037203818,501.000987985995,19.4231891774587
,78.5,421.770700697761,540.868882765479,470.731058609772,467.476071840816,499.869550504238,459.544697647377,469.192210480408,456.205261932235,492.992523737897,427.949339388969,465.527763053676,516.931023724801,350.440284904177,553.643439482076,521.005844242256,427.97551170909,452.307224556639,440.100546710308,437.863136328821,469.515787953856,502.689285207731,418.486442141709,454.725246590455,482.431140967071,345.421584400794,459.296216988695,554.794318311366,600.872255826361,443.91510848598,448.302474855901,478.742115681102,474.454811417579,525.918915706973,422.212404230975,490.7773594756,508.470021052682,27.421821207929,107.089940959308,370.914925621602,599.639660195683,460.074061407698,435.034637043695,470.517857922921,469.471068393944,502.502798110238,499.120252073403,530.098682559472,155.189068779839,21.7854810949829,165.864669031233,468.173313302665,531.712926954433,499.467583982195,512.029203548409,513.163210382568,440.822741306164,551.315610139109,475.936774988823,246.959375346577,150.425886813866,22.0186556664626,35.5848246693914,80.8231629311221,544.566872141702,488.321749812542,482.999512666701,397.474274549438,438.111182312269,98.6346266562646,510.08515493116,504.975761769817,443.285811621374,24.0400858360774,224.9354206059,21.5648306262638,539.987545664879,460.848840682583,470.11369492273,494.202139850569,475.337946314108,19.7480884326587,485.622993816623,471.397193941534,419.406906379625,15.9879778056128,415.568386068184,85.7642851586413,544.476626400457,452.037866287334,470.13931599263,497.421983932525,456.605528472803,18.9297135873535,546.086284594584,504.436192053164,19.1700340793598
,79,419.809743103896,539.536705084066,468.271760086495,464.978914625842,495.205617094242,458.20708758782,470.576029718833,456.069170449054,496.282195537161,429.513470092883,471.17131481244,515.598526798859,326.503554417055,554.424408412466,517.90148842662,441.714455797254,457.474444974809,452.450025821323,432.218760032936,467.540071709668,503.432475317737,422.817988272112,462.812658350706,483.333377591792,353.854535500242,459.609056773793,551.700395471672,604.416598766019,448.19178634928,455.851772494068,488.725806177806,474.733042857997,525.413135158235,426.599330952978,498.699003608508,502.983856627121,28.7052927383053,119.531144149482,362.741839106,619.352861830965,462.008277076891,442.650928685097,471.773673977265,469.119512385507,494.940039284833,502.041177293001,529.938131266328,151.412098220236,21.6180066764813,162.847737648391,463.707767883899,530.30545584792,499.598169264321,510.949347248555,510.894949183082,443.281804296601,554.533820437371,478.206300921709,242.264492355692,146.859613099943,21.1776596701515,35.1927160886039,79.2093148899936,550.823529941306,482.456761908454,480.728345753915,398.627172739607,443.355145786988,64.4090058123089,511.134886843823,505.136136962814,441.993092553779,20.8121737773755,219.852850648726,20.6792068364728,543.531674719672,461.561037670058,475.141244098315,493.752704892676,475.998848460053,18.7998621692915,490.414937057268,475.74961153214,417.937708776064,14.3765717485934,409.539959584544,53.2035633725644,553.749461442144,457.882188439372,469.633680278837,499.917433025632,455.337454278833,17.9799335143747,548.442373511218,509.326826396408,21.0301933685665
,79.5,415.827746374099,536.226601971423,464.732491115984,464.765692591166,492.576609278197,458.181079780219,472.725923273781,453.749211641089,500.239686125132,433.002719726665,481.11223293523,515.567280592838,307.340243661526,555.113419938289,512.496465218825,443.210260455524,462.072143569553,461.60805828831,430.415940346532,467.5775247512,499.805227010777,429.189095463321,473.23367747399,479.124580806512,368.035213186462,463.975333020614,548.789023744025,615.903336507341,453.899991741524,461.816641507563,483.694551952043,473.089829273223,525.966853927904,433.182307021943,509.079555859864,499.404614047712,30.6170595761631,136.584754406005,355.474532149475,640.708259658109,466.018888428463,448.084582729779,472.768844378009,469.479329031931,490.158316877819,503.452102572063,534.804721367081,146.425361382097,21.841563643248,159.473523311508,459.62582711815,531.85292904034,501.55378531693,511.126579988632,513.099746316934,444.742757151324,557.519966380296,484.935328610987,237.33724888175,144.439598944536,20.3350259472284,34.3122110942335,77.571731931027,558.865134171348,478.587017977791,479.647617174432,400.961757690092,448.432963911208,42.3428669542604,509.672101728348,506.610576063334,438.990638299919,19.1010712845938,215.26162639718,20.0950021379683,552.507101341339,460.850135435284,480.771195348325,494.517063495243,478.515429974611,18.3763633000676,494.857670163337,479.190787468141,401.970015775917,11.5299918710289,403.218012971652,33.4149767372162,564.41919618909,461.830463007577,470.792316318292,499.195639885963,454.18590189975,16.6791205476133,555.146622565328,514.549796059485,21.9080387984133
,80,413.421911933747,535.26994194698,463.031017497281,463.557130967034,491.213264365583,456.925625395161,477.646715785203,451.49385115391,502.896121912468,436.238787434262,499.12402930143,516.403963848684,296.318914478648,553.504459252649,508.115947031871,448.825472973541,470.032054099904,466.272571406045,429.801064908591,467.91807221991,496.462030576515,438.515000339863,484.863827645861,466.345248789075,384.547486605298,475.495361126927,548.501668482141,633.143058593527,460.207143090939,465.735409169693,482.000147211029,472.533971535781,526.956386920162,439.545803332638,520.871071532315,500.854484851438,33.56639890857,154.803395797708,348.837965204568,664.051616250345,471.522681904087,453.873529390069,473.790769553702,468.519518487078,485.077118579304,504.852099025402,540.386195498936,141.83575908422,21.170645723402,155.502356326371,453.295396580952,534.762806646516,502.220062897722,510.076261033157,515.784946990426,445.904531864854,557.438685930689,492.487968446396,231.184322620755,142.035499903489,19.8879647723727,33.1868243074997,75.4642659831823,565.840430417239,472.977176873669,477.870483319775,406.445636181666,453.325527203792,30.1578176147229,509.287306983784,510.927864614238,435.12438790477,18.8038362954291,211.451832664942,19.4579008088454,566.833602848408,460.119771958854,482.363374474236,497.615708966616,481.255898277029,17.2667759105924,502.034354029009,479.970230997663,380.341322209027,8.10764705232543,397.304046329579,23.4726860382441,578.433212240121,464.88648950915,471.853391120678,501.227281810715,455.861153676129,15.8823094207278,565.612305096972,523.663791484598,23.4776866720571
,80.5,411.667723902273,535.299980683326,462.970799246684,462.154010838421,489.68175703448,456.958931367069,480.20357910414,453.025965629067,504.746874841517,439.533294228319,518.194181270007,515.582799300927,320.307455008169,554.265617453802,505.636246833712,456.414321425432,477.902671951534,472.84659745705,428.727043968153,467.43883416119,494.653656981096,446.466536257524,494.855993353833,450.787697051217,400.383592442881,494.991920050227,551.089953501372,654.821853694823,466.256101033071,472.212045205315,482.269697081581,475.159544703146,531.917118473902,442.777914978495,536.911721013531,499.302976423632,36.137155826328,169.482400581788,342.094188677061,694.630506432879,476.714270206145,462.670230567524,474.012744044362,466.773514557663,478.236741563856,510.107592253633,544.057157935748,138.823991799499,21.2877515916375,152.163104879629,445.284986849041,536.577937506373,503.290556276146,509.901270929006,515.49227871116,448.377728438427,558.617795870209,500.855998066184,225.981128432825,139.221423229009,19.311835330155,32.0750861368577,73.561429788944,574.211726109351,467.274386644777,477.646231805443,410.848972475854,459.395480674029,25.198276552078,511.878497724585,515.715456270394,435.398816258074,18.5972629506977,207.541177026382,18.1076922659339,586.008465239424,461.925019820495,484.657357648588,502.653067601432,483.728154472832,16.5202609851254,510.007663257233,484.690422631581,362.693180633261,5.24175948989921,393.033126396265,18.5994355520816,592.589710246226,471.894966887371,472.83420728955,502.052019831708,459.931002611194,15.3827815438356,580.342409978723,533.497660702406,25.7325590189555
,81,409.152034872768,531.964364296834,461.719825156922,462.009495305855,488.590123714926,456.010106606112,480.576555132204,455.195834891027,507.917823699526,450.324179018619,537.525126822163,513.396514240987,367.46254506424,555.048528067422,502.163212519406,465.826407276784,484.240821457465,479.051351231697,429.64547925636,468.583813862852,494.327510080213,455.720944587063,506.959837326842,424.787521290937,409.693819616819,520.96775039544,553.186941323546,677.927655097992,473.015872323921,479.725293185692,483.532037514165,478.725750496204,542.452645296499,448.592390568899,554.99813850318,495.199376492058,37.2668133781912,174.902713580254,336.570219119728,729.900562318181,482.878145307677,469.801207579143,472.572784571844,465.31981927358,476.852388171063,515.785816739666,552.366687469517,136.241203445483,21.2416781506427,148.652401322006,438.086197355625,540.559621783196,504.161837355297,510.771131658104,517.731804926154,449.833309164243,563.541669593953,513.329239579205,221.69533614322,136.625815155425,18.6167469638851,30.9321439706421,71.6206094333011,586.472681818064,460.887698365723,479.736926553445,415.006367543398,467.088467717139,22.0357313511118,512.66663582413,516.714860875073,438.921347366432,17.5703836547085,202.939575970095,17.2649032581527,618.053696628328,467.64042991046,488.180290199814,511.169266399126,490.009706463778,17.0794625067166,517.849827479188,491.231919910976,347.166878463355,2.74078178213949,386.914688081444,15.8688028774382,612.997724669535,476.842481543861,473.278023450663,500.567992790826,465.65648376966,14.7242412021938,596.12005983376,540.460770472064,25.0694675856168
,81.5,405.681808801444,530.582111897551,458.131531842029,461.243678220898,489.642605221643,453.036269987212,482.325241645985,456.883343916389,512.429659308777,464.179771909742,563.245948042638,513.595746967289,404.16641287422,553.535935917383,498.178303167861,472.815105827456,491.840702038975,481.379744519297,431.142663482642,469.746359789816,493.010837494176,463.939034962701,521.854282961702,389.739132673936,408.44793249092,555.170119899015,553.612770809364,698.902452261598,480.995108619522,483.759190385045,483.482106646817,480.892707995054,555.439697190308,456.85385871489,572.713371249449,494.786594384213,36.7200581259675,166.970619721725,332.798462800165,764.162701690914,491.628539847931,473.724521358413,471.609564332968,463.526694339675,481.615649849301,522.915673793243,562.41654767927,132.681367203248,19.7803042263656,144.488881484988,431.292475163152,547.397033920226,504.09602691423,509.319628884991,519.620873726601,449.484870935457,569.089923431259,528.768745936879,217.256894100209,133.536734020095,18.3097476705027,29.7772505603641,69.7527486481508,603.580146770933,453.95841534766,482.035201434872,421.053143099634,473.572015911861,19.2866412061525,512.495969714129,517.808317022317,443.316780009728,16.8216502724853,198.571178645452,17.2487951256891,672.880439645985,475.271041654176,491.606938299828,523.112811400547,499.779078704641,17.3761828786742,524.869240512128,496.669818449647,343.895018715239,1.19890683729693,379.968459646583,14.563942953409,651.597571251453,474.768632068413,473.708591822446,501.500696208627,470.791535734287,14.6205361878914,607.225226248386,547.579211187534,23.2423793303833
,82,402.288422508995,532.38778007746,456.039211853399,459.281958373124,489.523398727143,451.280119369539,485.245937282244,463.34914532123,516.97623269281,477.318049779951,588.991480271235,514.53154530929,437.38307432119,553.60129199981,494.694776949927,477.811111348656,499.856745789888,487.38182611822,430.390031965982,471.497132154211,492.594645943882,469.682790302786,533.744075666978,362.573121776426,399.342627627263,596.258243498989,555.580735746776,713.328537989184,487.168896043545,488.158727828283,484.563665578152,484.301202927298,567.345402730021,464.090870614686,590.420227386618,493.207478273225,34.5748848405005,145.386878628294,328.711060587321,794.56664378235,502.155625162568,477.837755420753,471.04346327008,463.709368760495,483.808689505339,533.768753229469,570.701375959573,129.732214893887,18.940813383206,141.244408691304,425.477578007114,551.812762508785,505.500442337234,508.274777675853,521.302206070306,450.796884436844,574.547810155407,545.631860802605,215.203609431969,130.109531426842,18.1060537621076,28.6821798120254,68.5663952697366,627.491814281146,447.903712962475,481.952026427779,428.482721420256,482.484682744147,18.5750163188325,516.555087114381,521.611788814427,450.349303195703,16.3609434704827,194.041114166163,17.0099613141643,746.129578833233,484.489180235032,496.697374383808,536.018821168542,508.112393652445,17.0796959322374,532.517912655545,504.38699819848,372.80622483442,3.09779419784502,374.23873837361,14.5882368932516,707.212544630869,474.612302041327,473.637589256856,504.45892350244,473.050649895795,15.0981844787165,615.163087681625,554.029285232514,22.0534017539999
,82.5,398.650262104284,533.282544888574,452.468964201726,457.311124980397,488.474666821183,450.426701342737,488.210572069835,470.952344011484,525.643356562277,495.500598141354,610.690706143036,515.039297450585,467.011053591212,555.741430147485,490.534594063336,484.696144278619,507.25114151965,496.037428429958,430.916449281489,472.233299265194,495.041209475381,478.144849608808,547.454346497191,348.921753743839,388.628619109011,642.029919297841,559.920476672612,716.908878726124,493.169818275198,496.182825561986,485.246366371162,487.755060552262,578.761011278592,471.257554169276,608.087279526722,488.130728633205,30.4184017894645,116.138610356368,324.381446341986,815.905191621747,507.781134983823,482.125733664888,471.209757371174,464.346374755236,484.771298690604,545.028927624361,583.273017396923,127.959255861788,18.703837398011,138.594752222451,422.091575687427,553.857903404368,508.833279252304,509.842290698341,523.137575818934,454.2079424869,581.604947056102,563.047909573725,214.154435670227,126.974631854748,17.5053723898822,28.0457119518691,67.9072011927567,658.353494649335,442.672649415239,482.269066110939,436.94820842383,495.517787507258,18.1922832646968,521.591892546437,525.234384890721,459.362469875863,15.5923109724672,189.427535826067,17.4414754040732,826.056612539521,492.903546842226,504.046540330342,550.441279386815,517.124153322998,17.857375049915,540.219571466749,515.634242212057,416.974877831749,6.94899206649393,367.757904385392,14.7939359033625,767.954757697714,477.102505367553,474.243802748398,507.750435918289,477.00150760131,15.3367853571031,618.86495273807,554.963548463927,20.7251973243301
,83,392.144273813713,532.36834753683,445.172556805869,456.38442246044,487.847607474689,449.913392278478,494.466304233832,478.725401076569,537.664786281613,515.197837270154,636.73823678934,517.731472529399,477.221854008986,558.548586021732,486.877025609476,491.929534149823,515.276895007115,503.084306569704,434.019321381382,470.769885666367,501.056378612808,489.27884631721,565.459034413367,349.585725147533,380.755884503908,703.574202447268,567.345255638436,714.820305286787,499.410925952545,503.423276778825,486.175520126295,491.389278233124,591.578589588591,481.80918459831,624.829239393696,486.568418610899,25.5586287912967,87.1173368763435,320.803942013581,827.090123420204,512.423646060809,487.49590019367,475.717278654844,463.267820239284,490.251085310731,559.468127549068,602.659129234307,125.621694723221,17.8937003028215,136.377245829059,422.061569615568,561.373647932134,514.582287859765,514.26677940149,527.441467489477,457.566397100728,592.015494254204,581.455234950354,212.429007735766,125.223884585121,17.3819757241097,27.5570786939869,67.3165743515481,690.22710528495,437.862800642089,485.220667083917,449.060050966653,510.831829509157,17.1745131110554,525.584674049017,528.163081833019,468.489440652726,15.19004786091,185.945631866637,18.0920369924161,908.061081603873,500.821327629135,515.344854141516,568.022416155114,530.881818316304,18.7667501091817,548.014109720064,525.773618191289,457.294117569966,9.82440079412663,360.716322205136,14.7377971751765,831.793429989656,478.585421309513,478.107921143991,513.561187294795,482.01301876696,15.1875116239834,617.492534907416,557.069956476719,19.2220857147148
,83.5,384.918190785653,533.307851278588,441.038856331069,456.412338283211,488.226095019306,450.364368609432,512.61528624475,494.853920783816,557.079945531136,530.221113551624,664.351957146628,522.590358596126,475.281032682624,564.828974442229,484.059708964805,498.1422837606,523.406724163346,512.861555996895,439.093326412413,477.709537928417,510.230295351936,501.591246014512,583.333019041433,380.962301902804,385.936498165551,786.752055329213,579.198269355004,716.347669574302,505.591346027656,510.730618749726,492.945454676402,499.016730525115,606.47334609345,492.011102755512,644.411798550757,490.838649230633,21.7681699261666,63.79654327581,317.895411362135,837.990145447523,522.046576421972,495.886100155424,482.871618787535,466.454612494162,497.804728102589,579.662887940059,623.77396007026,122.488809473323,17.6181712126324,135.7406130503,426.50243327232,577.051624166008,529.252447212778,525.731865677345,536.958415954903,462.89367934037,608.028070457243,605.041938161436,211.169257053467,122.989205077115,17.706858433586,26.8879157182496,67.5929286732307,725.534919199573,436.148645149353,490.476084716117,465.117700284049,530.099512368589,17.4746605885524,536.134270901689,538.601633795452,476.462775960124,15.527282837449,183.373920644627,18.0316785475193,992.937365323517,512.231104520549,531.462607823334,591.152700129016,549.081091624412,18.3336675399914,561.569238398037,538.995032008969,500.614970077066,12.5439393698307,356.465567333589,14.823828653467,903.977208863385,482.66392918016,485.666711395273,523.374824075916,487.627849746672,14.8912417148036,617.314401621185,565.633760826433,18.7352222660203
,84,380.209759247091,536.381945013741,441.947902855148,456.190761779875,487.82634254178,452.362487912568,546.63488422679,526.581700400696,595.410846577153,543.714811261973,690.463325262999,532.876267969277,480.635661792356,573.598399343346,483.664353697346,510.606936319068,532.607466961138,526.357848433449,449.676436985609,492.692885965705,528.496705979253,517.559103203069,606.323350613768,440.608233799899,417.818501001423,873.177335614257,597.478874672867,729.488051298594,515.520624991364,522.313647022686,505.942766700153,509.767161199507,626.734111323341,501.48102095909,670.247981065945,503.808688258826,19.4512671168114,49.5978663049189,315.928254861847,859.209146553976,531.94496459698,507.388813375678,492.178991367678,475.595265509663,508.023008770901,604.408800312233,651.32716153777,119.831362773064,18.2306575935057,138.417578472016,433.872156910435,609.269377656085,555.92049121639,549.698437957637,555.598995701407,476.242561203599,639.090207295026,635.669598098714,210.471893257191,120.457260752953,17.6814872648313,26.7047850603707,77.065353511602,775.836515335246,436.530905441289,499.515124794681,483.737403894125,554.317350505162,17.7608520324483,553.15181253999,557.486286136331,484.319837486237,16.1584489940353,181.308004169195,17.905709743192,1086.06145081573,526.935517151857,549.940944687427,620.37958053896,570.039611612382,17.7535544755067,586.22317183532,558.473374804058,543.444156489978,14.6764882807338,354.940956398348,14.8859081442139,998.71648742135,493.757876122724,499.786850593204,541.522856763592,499.81270289691,14.4945819296298,624.289273613682,577.587499521083,19.2815334781361
,84.5,377.625659751751,539.159358553339,443.797074018545,458.341679709708,488.985439963825,456.014676012059,596.76190743028,574.84756729653,657.742322782386,556.037022826151,719.976168288647,560.855485262182,490.981354462531,586.008732897887,488.785503696853,526.953338253277,544.4778802242,539.630411674359,464.09874403233,505.729330057699,554.631694045061,537.572559264037,639.377028919728,506.460165072596,469.873350431426,945.165370879176,622.781237456742,759.981171646851,530.259449703693,537.084503957284,520.70785709329,524.994516458278,652.310288076961,514.585546165196,706.600290027502,532.455436436301,18.0894405058106,45.2734509564521,318.075558553738,905.931482062384,541.406324293279,523.399972049489,505.924234183358,486.604488716206,523.709145529952,645.82686692199,699.006407364303,117.584993313488,18.5671714735475,155.877847405478,442.603552781502,674.643328128559,597.257429778279,590.181394648716,588.843807462944,502.286747853511,696.688061814443,668.599848376308,210.488241434232,119.714749724855,17.7744067516956,26.9429131032562,100.113116018472,833.897842219056,438.532819691648,513.85528299164,504.588762318224,578.431513737876,17.4031600321368,569.636927683352,578.14798935404,502.051623756901,16.4471201686159,180.826838823649,17.4205338604372,1187.75269061276,542.636612912752,570.211136829352,652.581851535065,592.157759760011,17.9075822355398,618.333032836106,580.446100069693,575.836706754517,15.0392649066366,355.835042934053,14.5465432594521,1123.1630703167,506.246862431834,517.842832084489,565.868292159859,517.875333006859,13.70197996805,648.551987502986,601.060755971231,19.5334109651735
,85,377.211253816848,546.172433220049,451.084669005416,463.516451224446,493.683390672315,459.897578272184,676.038492115558,652.246745487034,757.680174023621,563.902301871924,749.835142991729,621.843102955273,505.576579385414,605.438191367428,502.524139638116,543.537586451257,559.644092362974,553.763327237161,480.269877307006,522.139374099519,581.878732605964,557.444885568714,672.749357294653,574.51053329373,523.692563884617,997.593746781064,653.447778438247,804.963184837499,547.979720261132,552.939209120635,538.853189724664,544.364762812218,681.172231514387,531.054311374668,752.620997001483,572.595205905393,17.5970143370206,46.7197942940708,327.869727834938,989.358591287186,557.924384501107,541.242711697864,522.817047249181,501.949094758085,543.495069141515,726.126032900243,780.61034337735,116.539466288237,18.7352015264476,206.424591694422,454.778211737724,791.984406636088,659.541501808903,653.833673475037,652.058601380876,549.76325057316,811.384489429434,701.811378310467,213.196397999489,120.439323061106,18.1599580499534,26.7455869655198,126.97199011837,890.08556844974,448.329785333515,531.075654404208,526.251143573856,600.681226809709,17.9830397980156,587.810715116195,599.953429920503,527.630139756684,16.0857599084489,182.650936804541,16.2045510619665,1286.41343858582,559.772581659984,590.56670863299,679.407051316185,613.892534549675,17.2290340835877,654.864455259422,604.652415816167,604.395905606799,14.3784767618661,363.101733545734,13.8830687367561,1259.69401089228,518.286786921445,536.027760030956,589.073475915456,533.599281650934,12.9666465373261,721.382192242741,655.697848498521,18.5954381278062
,85.5,383.457675045665,565.459731213248,468.653054975405,470.082946311816,499.391176677989,464.401655458424,802.953094178054,779.500306553635,929.042112514682,573.985843741162,775.359126964495,742.963226522525,530.729023397117,634.495815267616,525.996984266333,561.176975408253,575.062257461355,570.993741593489,495.35033003899,545.095234120298,608.293515890517,578.619813301983,703.692708500388,645.119502106424,564.618116400909,998.078837677199,687.566191128499,849.912386534784,568.946731824234,571.653281411996,558.995231242486,560.691456649,711.263176410713,549.708762475341,803.333495392807,615.677617694347,17.8180552356873,48.7447141171704,355.543115117218,1091.64643940914,578.285189651916,559.829286271561,539.678542420066,523.258380556981,564.300201054801,853.454050732244,920.635714062367,118.287654169284,18.4699290372707,273.509785469388,472.543868182022,967.62261283017,740.123037456878,737.059615035552,756.237047138011,624.566390649507,1027.11414396067,733.699733876395,230.051790309487,121.961714333879,18.1241812550014,26.5523106117295,151.387931031944,949.681951574898,467.409520881713,546.765231490542,547.314048622549,623.705261861813,19.1597134756275,608.307620180715,623.684727830353,547.954740496886,15.9128010624926,187.350778229551,15.276005080756,1379.71292442933,575.266877146013,605.870735996569,699.848809164694,630.470089416852,15.6160716868264,696.875330318373,632.219304005916,636.581485448599,13.8837731593169,378.492796659553,13.8130064730973,1396.09482769091,531.526173405516,551.206013034096,612.935860896966,549.181652951424,12.3040995937752,879.396883774874,750.176348126275,18.3148675009495
,86,385.120766234613,599.25206926943,495.45508121762,479.362231491293,507.513346974571,471.547160028505,959.898403472252,940.19013123798,1163.84406720757,590.269350379459,799.10009718883,945.856061015753,568.630135225882,678.76022815126,563.119834304586,580.330417004701,591.305391975105,590.445936297991,508.441422772844,559.348630680752,630.227016397564,605.919482304357,737.089625478472,705.740524660062,574.831725493005,923.449699147892,728.892269801518,880.1266923554,597.555569662751,597.154706320861,573.306808571581,571.404024277736,734.989290736763,576.979169650072,855.503848081918,660.013593165139,17.669975254749,48.0323941724495,432.246146140576,1187.28428869925,601.214076404783,584.192837351356,556.898296648224,541.751851907231,582.138835486187,998.868355531521,1100.8825926855,123.614150973884,18.4676821717957,333.621554742788,496.735523081682,1173.14566058714,827.987892904295,828.536788486448,882.695563106878,712.39876207398,1336.18886607751,760.848053615659,270.213878976646,125.050810501583,17.9162498322562,27.3006561475854,172.399694496856,1001.4705937939,497.72130515317,561.558387851464,570.775453876473,650.519750692802,19.410900955837,622.847040020753,643.321713540818,562.763981943458,16.1019784417407,197.156275451031,14.407851917947,1460.99148854904,581.322232100674,611.309120794775,705.474987569989,633.763157073935,15.0779179875425,738.026373851023,663.078256816492,669.510010341653,13.7641059039803,403.718692588834,14.1138205115423,1526.87655719356,542.547004450751,562.306087520123,634.500191075153,564.176015503465,11.7373131288851,1103.78881119896,871.21066159172,19.1612078184722
,86.5,393.105308630937,656.570217076096,539.090860255216,490.277154392883,518.589978544499,479.374800493898,1117.948915853,1103.4261143097,1413.86752206785,621.055055858986,823.111196703233,1191.9546071069,622.618752965968,749.065235349155,620.217126457063,602.420721944033,614.060893094499,615.778026251473,517.748688558353,568.606503431111,642.047881742122,652.031596306718,780.74759701286,748.946264173419,532.100663356292,799.465546240908,788.570503895185,890.745297197281,636.661016000175,636.440557354884,581.243487672019,581.279876997784,745.358845367146,626.361794192167,911.381231177343,694.455012437516,16.8209011118993,43.1911698398957,549.308419991158,1265.23472669062,640.045134522949,623.450873367452,574.346782674083,555.095383964485,594.131183179571,1135.80844842888,1275.01602636015,134.773191787627,18.7982842267829,384.13547422755,538.167810909859,1383.12981176598,920.105650236153,924.574905694103,1005.78380675877,793.546702983365,1669.8113378913,785.347153523138,320.521906435512,130.619990759903,17.6361431684717,28.3067755497307,173.319740580922,1014.85569035176,546.658294484806,572.48838997706,609.261248667573,690.519427762948,19.9799930562517,631.934943203499,653.911528505137,574.46024010556,15.7267888366736,213.932839875512,13.7732576868672,1470.01233267677,577.601431363489,607.13561684713,691.114077672222,626.859059028675,14.5230697513367,778.978208160308,702.370088211227,708.591689037298,13.732996527193,444.537568731406,14.4610068671536,1581.7280741413,548.228409576493,566.811125125359,643.584309155067,573.911755375689,10.9873394082471,1343.08806728876,999.722637057355,18.8356271774998
,87,427.041203255473,747.328105467959,606.147493878851,504.295512165847,534.296653316702,490.574046362556,1260.22798500277,1248.37869469434,1642.54979220302,704.389270671441,875.244570334618,1438.67414998081,699.583056437694,850.139556608023,701.371616061263,648.813707533757,661.607791801348,668.392012045218,535.720495952421,591.839228545412,660.540035303323,756.922526922347,868.093144731817,794.113409930766,441.28034300258,653.848659184618,873.014523165978,896.045959347653,718.426420516934,718.874125277306,601.082043258326,601.563026294998,765.696207902767,722.775835193938,1006.09000367828,720.749714625997,16.4135986874096,36.0602627187723,671.90872262788,1300.02820228311,719.390257776149,701.307238412581,607.102077996778,585.835578789652,622.366678747549,1255.03909981138,1425.26878271578,154.929213117434,18.5812342203284,400.23242602073,608.414642197563,1568.34651669804,1012.00555411874,1017.7765282817,1110.36824121834,863.005982669681,1965.14814906103,848.879554748793,369.846440503428,139.436685666715,16.8202015016351,29.5171132615634,145.340956545121,1004.8972210364,615.908742465284,587.039694739093,689.193616824061,779.065752095514,20.8818478262724,657.722116156752,677.237956010357,576.63668547972,15.7759791612178,240.386418569643,14.0607758523016,1397.86935810739,578.647615682939,605.364580434995,683.249959173505,633.491649910905,13.3070011655043,858.197387577446,789.091515627419,787.272620159511,13.6172395446125,507.990279623384,14.8487455296641,1523.56647393233,562.473065436786,577.170880138276,658.163210062233,595.728775776203,10.5432270603516,1566.75046187373,1135.67886568861,19.6562559293293
,87.5,481.484271507099,855.961158139841,686.209749350406,524.134387212303,556.940160133006,511.015224984942,1349.58951189716,1337.68058125996,1793.75908850287,895.23571999603,1001.49585084131,1640.17420194625,795.155901336302,969.399549367908,798.451748425204,777.226041858457,786.82649616976,803.217686542798,577.97777077428,638.661836069028,715.103357276995,973.36230729706,1053.68664715158,861.255260449726,329.557579308311,493.22600896979,968.778756671446,931.708627089061,902.344315529248,906.288402141539,656.737301029543,657.078995486754,842.508000558756,897.218704141945,1171.10326265968,763.239948997057,16.7809301514994,29.2157795403839,784.915693927277,1269.78022482934,872.621202082117,855.953798671793,678.60032050664,657.286030506669,704.064468631866,1321.1558946305,1522.14040534923,179.210481837573,18.2604708672483,346.644423018128,692.612423806576,1664.76806105961,1108.85073548426,1110.44729754775,1170.42490900295,908.899182878426,2146.74308247095,1022.70392741993,416.007510177201,149.8592723983,16.6942309146536,31.4342984144429,108.765119535352,997.20877427041,691.437400106751,615.326462644231,856.574265516385,969.196831010571,20.79245971343,729.66242640359,745.553043924133,580.454534333657,17.5398660760744,271.213034351711,14.2762848477875,1301.87796558826,593.805942050134,617.381477929934,713.227636775458,673.318293637104,12.7147569142818,1034.34491806105,972.766967275585,952.419111436811,13.6492542664736,581.763136399604,15.3554315537463,1408.47418383684,593.600723482917,603.408923858231,706.396081503383,650.586973053577,10.3990339892268,1721.36314028576,1269.8849691382,23.2421559763711
,88,573.543767769988,982.695848432912,790.274740054876,558.537569974148,596.805148782729,550.427152304559,1349.36906519551,1334.40688005233,1790.61005202442,1192.89431551605,1241.86649328347,1710.92972033982,923.624201236085,1111.47561408332,929.786284369907,1025.27834650897,1032.55117948214,1055.45718663958,667.728963148031,735.433252104816,828.740920900513,1288.01610005285,1355.63673829495,970.704094256931,220.142993489096,345.93372159271,1079.21925479903,1039.51990063565,1203.43475792769,1212.18047788558,773.51638348115,778.866469371213,1012.7511850292,1148.44871155792,1428.25033808227,854.101271754181,17.2519386411964,24.1610523777194,864.168910085559,1213.16344203381,1132.77267674509,1120.24451003612,813.356133634758,791.513685246617,864.548539418303,1309.22145286549,1511.42584504254,200.914158592225,18.7244183311053,255.531500825955,780.730935290715,1636.23433362527,1249.79765345518,1236.87799985447,1167.55532402969,926.32238650794,2117.68776737882,1320.57796533588,433.29620651357,163.394980941931,17.3422744185515,34.4615410646871,76.1386952888612,985.390515889578,767.865771143448,673.973955233513,1125.38372815418,1275.65584966315,19.8142725445173,871.244473086295,882.037549510119,622.705565267038,18.732959210914,299.316986380917,14.3607051060625,1184.13139857204,638.194526757578,660.042176976374,798.082848969888,765.990190518987,13.1604805764766,1357.9166617887,1285.05316196445,1251.81437074208,14.5123428941312,651.743775035391,15.5201617330188,1259.92563482831,654.283117681119,659.621222441428,804.692823070956,757.053220552405,10.7903319903614,1734.67102795996,1389.56116892503,26.1766881025873
,88.5,802.978947939208,1201.98325443408,995.70789120862,651.105795186321,695.453286665816,653.099079533583,1296.96940466209,1275.1692993748,1643.43391181772,1547.88537348046,1544.91469662536,1609.5992048234,1167.382057026,1331.89741731587,1187.92080718505,1369.3122093825,1384.90969020341,1412.00639604489,889.300549822285,980.831693546,1080.01707591631,1642.49637837391,1707.97561464712,1163.46545302701,129.598123223142,233.46368526066,1236.57122180592,1186.20794467271,1581.31464376766,1591.69745978465,1012.65727401707,1031.80780837551,1296.53182454464,1460.58788624,1740.62037515383,1008.70814790301,17.9646554687353,21.7542870988815,850.22113650303,1142.31813116138,1505.58831840938,1490.2960295277,1083.51691870749,1060.93146592707,1159.60855997199,1270.29851397472,1425.24979967874,221.982365598762,18.9228271981641,171.436467444674,897.57936960429,1519.36009978426,1417.98516573916,1381.65390346896,1145.96811032741,959.161545954284,1883.77225899948,1679.71077477465,405.588603959952,187.669693489441,17.2395887165513,37.2233156898114,46.4555847154348,1009.24028267964,869.299160320412,834.932335132601,1451.01918244148,1654.83511234197,19.5918782028347,1161.89487761593,1160.05478725587,702.000226101961,18.9821802624979,328.882926959891,15.6722374913787,1032.32016571661,779.952515002943,804.181794733278,1014.5446016396,980.522318296093,13.1212462900779,1762.15475889456,1689.78043807607,1649.78175509053,15.364724131867,731.501144874077,15.2597125562521,1056.08645674758,822.371250535422,817.798276970105,1028.1126437826,1002.77735340983,11.5227272790739,1614.74142710436,1499.35399393774,27.547069213859
,89,1259.39222838427,1586.9320173914,1384.55937364128,927.537318674864,981.897079598639,936.904899905519,1277.39616431798,1242.62084111292,1445.60784531691,1908.14910895807,1827.8362879937,1408.30113363758,1597.14881884563,1643.67319705085,1632.87371159977,1752.54851993817,1792.04864335391,1825.81850591164,1295.48573366588,1429.03203812779,1524.94380371406,1980.24716296337,2026.0470737137,1469.45488742002,69.2897361604389,147.848532769955,1437.74786209574,1312.7210823134,1976.5936056291,1983.00069220359,1459.31323175507,1490.16035439667,1734.63230321297,1789.45987836484,2028.34192450684,1241.75028055822,18.8260345929733,21.8415054759271,754.254648222907,1028.19878532839,1926.6806578605,1900.86911351051,1527.47216290269,1511.84471471676,1601.86852165399,1257.65256576139,1342.98447332537,243.871741604723,18.6126592405217,95.0638471947096,1029.64622292932,1336.92613892049,1572.55942511714,1513.30356484729,1195.989121963,1082.03259633591,1571.18727507797,2039.24383766768,362.859898626073,218.051040527693,17.5779777069597,38.1563971366954,27.3770539527319,1129.42474275916,1001.35014454119,1170.5550411382,1767.8848198884,2036.3895931021,19.3088184639395,1630.75761133288,1628.18072029957,794.040250211582,20.3622090287313,359.169578627333,16.5067103742136,919.280213277917,1087.70991616887,1127.94320789137,1389.69757392462,1324.32519445142,13.0189598054812,2139.08992091367,2101.585283732,2052.43130277628,16.2229715497883,825.565767435074,14.8138721197571,852.267709242315,1165.63915631036,1154.42777704386,1433.73560651438,1434.69970836059,11.9198554269609,1435.63874872642,1611.84583023753,30.0761472497915
,89.5,1799.66792146246,2004.49925472667,1835.09911958435,1385.95184452548,1482.64740846775,1415.42684675502,1321.0390508237,1266.81019903533,1250.78276826423,2187.92979837561,2027.39049617012,1154.79349917101,2075.556707368,1927.72158114439,2117.58179928069,2101.42807629016,2178.42741157122,2215.5707351706,1760.29558814994,1942.55529894674,2022.89012307784,2206.41347538528,2235.68234069648,1794.94788484792,39.7762516429108,87.0283625103551,1594.15360632049,1388.32080972521,2292.57691578471,2289.57274436036,1992.78334725929,2025.097005145,2212.0369065289,2055.45110279372,2202.64401337668,1485.96384380558,18.9131625638062,22.5864964905459,631.251293828875,892.168225828199,2290.09709644761,2249.9630621851,2020.28207996428,2016.54448330936,2052.60656454691,1261.08601001862,1271.74887750474,251.44816524989,18.5064098380253,37.9727296240275,1108.55425027977,1105.19720977203,1719.70574992759,1639.93753667246,1359.11994447894,1309.03111361768,1276.87489307428,2317.5678081855,318.888924281426,239.193911188537,18.5047311332842,37.67086062018,23.1021578212374,1297.26678579598,1112.11019174636,1624.30237311783,2005.56414837371,2332.82522420668,18.483280548907,2131.73812159785,2145.97675019278,870.946981362124,21.2935868994398,369.344093559742,16.145398494374,860.334127210251,1510.92927535906,1570.8149742768,1812.5811657856,1734.884323084,13.655769002276,2411.37956690086,2425.53829894895,2374.15812695205,17.0893874956026,882.946133116465,14.2562997116817,693.403979965674,1625.85023262953,1616.18967635772,1893.92088063013,1922.73120717633,12.0072126608101,1229.64284476314,1698.47066041153,31.0258502511373
,90,2275.16865326254,2339.37158654226,2220.96058308369,1874.7632246771,2041.38563676469,1943.61719124915,1404.88825675975,1326.64030245113,1086.82465211213,2274.01940521356,2066.53131200761,885.027716407211,2474.12793730933,2122.29483500283,2521.21579794786,2285.65419349927,2414.97964503575,2450.69914740661,2160.70725929173,2388.12964428157,2425.02781832052,2211.54145382382,2244.23851841333,2030.78824993955,28.4677489212374,50.1706615126304,1672.19538661883,1362.98041011292,2400.04880206913,2379.57346531873,2431.42324747437,2463.44534681623,2541.60313602299,2174.54909713623,2200.53827256859,1648.50207366735,18.6450818427892,22.954367423964,495.486487643229,760.878190971554,2499.74754857587,2439.75353755483,2428.88738358075,2434.58382909509,2374.34474219511,1284.20696590873,1210.38778847078,242.912051806793,18.3476674320883,17.3074365322851,1128.39104431809,883.518461581476,1800.2344233623,1702.76560088581,1563.82778561069,1553.99359732229,1030.09921468208,2380.46693484764,266.624992479109,248.864775224312,17.6388313381167,35.7975470355386,23.2450193213602,1448.80797591324,1176.88139458616,2089.13980713272,2074.15898964694,2439.94304338975,18.0844423324027,2528.34942065411,2563.0176901717,900.32256172678,20.5494109369766,358.351388774499,16.7803950754817,802.008729078997,1969.01970579711,2031.0526735748,2188.20996042972,2144.99725172224,13.8797385301359,2463.55172783222,2550.08639929943,2513.97793114057,17.6056019437485,889.426997421455,13.7795582104769,553.815406504011,2098.45894720351,2087.26225358416,2274.01668271103,2346.170323288,11.8049198854468,1016.01476436477,1716.26650316259,29.3720720132919
,90.5,2649.18095719294,2584.81403178219,2519.914692952,2314.00155960491,2550.33773608409,2420.24506802733,1501.56071041797,1398.70085884574,986.715589391512,2136.66078909069,1860.84112894205,670.348444640461,2758.50089098448,2215.37282317426,2807.93720970841,2213.38334100484,2399.64621342097,2434.99785238163,2451.55896393491,2709.45158479164,2686.91073415623,1998.5522400341,2008.92515690453,2129.49596461248,24.2067136065269,29.3775126094447,1673.05957920124,1188.13218013835,2253.73596869553,2215.49754781352,2725.90497458825,2754.65035987279,2650.73422654788,2113.68689657464,1975.60161075992,1681.00727389466,18.109429684672,22.803503362976,362.990063129354,597.769804856047,2470.40497495363,2387.21702395266,2692.38716139717,2704.51247954855,2516.01852988047,1323.09316712704,1172.39445982674,229.586992676972,18.0989739232018,17.3693041485362,1102.12395602267,701.601032024671,1707.23192557238,1609.37714496047,1740.54504643238,1749.05859712263,862.561084391153,2180.06447076768,223.084707950669,244.285809784865,15.9860275933318,31.3758822663725,21.5221835743747,1583.56502517421,1197.56704091377,2491.50571783372,1929.6346127016,2302.84113512432,17.5984682813692,2769.86837985733,2827.59735966757,839.603329682678,20.4280382447279,338.412551953921,17.8244119664841,757.745483309612,2384.51856888672,2436.44449280907,2448.95739495516,2449.88523908679,13.4262450383155,2184.9142665441,2389.3467886946,2360.54251194519,17.6728622296489,868.311625795088,13.5266509032775,438.943071202827,2502.72903747218,2491.69709722211,2534.71129179222,2649.69802412267,11.2684856543081,828.688325001691,1639.07786153623,27.9788241600627
,91,2752.06004558589,2579.08231218015,2565.01652521478,2613.1175877188,2917.80495028134,2750.61274573026,1554.10279492412,1431.30485391881,927.231212915278,1845.03230461165,1495.04664500386,521.955640524808,2749.11206960874,2072.70795681283,2780.41736927522,1923.03163386146,2143.38646325906,2176.72244171999,2463.60821809134,2721.47584678293,2653.18740733774,1651.74798100293,1629.99646432263,2010.66007254425,21.2074374613306,18.6752621865105,1516.68443962386,936.671788912293,1911.43997961248,1862.22752157572,2759.28147229787,2765.09781455802,2504.84899322644,1879.13657237493,1587.75358152163,1548.21291182537,16.7502868464966,22.0274561084614,257.61783919348,418.299501358971,2172.8108337939,2077.24332756292,2666.64277954689,2682.47403417145,2369.40010741412,1327.4293195661,1128.48498271416,204.502233449327,17.4201240649442,16.4489136209555,970.279847059031,549.03236434836,1490.06775527145,1409.82053535041,1845.32325751465,1846.4421553335,770.137791300822,1821.04299775971,192.704813339598,213.317630533854,15.0939764798785,25.7622722671526,19.1490283912265,1628.50447063626,1112.95604782086,2673.08572650134,1632.05641685716,1974.03585524358,16.145905256054,2702.02484811205,2791.01591502583,694.579494247919,21.0945329216208,294.723630344176,17.2505085538517,733.610464902845,2595.20470716776,2629.21937466155,2433.64990882183,2498.99227642694,12.7345735616399,1701.43214557881,2000.0704071513,1967.6441557977,17.849905735261,782.300137558093,13.9429215263932,369.696666081348,2680.73446618008,2680.08251693922,2524.41341718262,2652.70604847561,10.3317889452522,685.99877930138,1476.13797658455,26.2825608131751
,91.5,2368.42776609156,2145.18469871259,2167.50796774149,2527.0072023038,2886.10140968946,2701.20895033184,1457.54786443266,1324.99906105827,823.503968757166,1472.32061995433,1119.45401415475,395.828790496145,2285.50320652428,1636.74690467231,2293.99029722622,1510.42925789518,1730.62542489806,1757.46610412806,2086.88258891051,2304.82046815067,2212.8110207146,1247.60055142004,1229.16956063435,1628.02921841409,19.4818098272359,16.1942971552173,1173.24318840993,707.380609197909,1468.04247297204,1414.60698773178,2359.26269724593,2341.25744339045,2034.570454167,1518.95676470363,1172.17732030295,1232.68425708443,15.641441959441,20.8902689900842,179.747034765533,282.000821399386,1703.81028460642,1613.38535016675,2271.1598334789,2277.75670437407,1908.61685770727,1253.12436824591,1031.43016187708,157.963328306573,16.7375677130613,14.9018625076342,730.816990704798,417.420309727057,1220.36311236249,1159.44006190463,1762.7826540761,1736.46469839885,671.68594056479,1407.7184170931,153.583583825396,161.443047915011,13.7751731286363,21.1328852535758,16.8484619351374,1490.93665988149,890.84139947605,2487.30546863669,1275.15159575992,1559.97761218604,14.4038232609394,2261.8940381773,2359.4025913058,509.294736509356,21.0479287607978,221.749990320719,16.8287074106067,676.631473894344,2467.52223584367,2455.80105690189,2099.42595618891,2276.14159474973,12.4096745216812,1211.52674270769,1528.22249020587,1501.63496994898,18.6500343095852,603.641009922041,14.5531379220108,333.004908039768,2495.22673506634,2496.25785522187,2132.45484530563,2261.37840901535,10.3584090686843,571.331740482616,1250.69451290778,22.4636419003161
,92,1725.32120197511,1520.0486555407,1554.11915473063,2048.27608121238,2392.41759819926,2230.61140941821,1192.21188957974,1067.80248011888,658.156257178915,1080.00965148728,765.203917664446,281.121046586178,1621.06676044011,1121.87027049632,1621.07502628927,1061.24859125722,1253.03722369642,1275.3887067016,1539.42470813382,1697.92455180161,1600.99100205278,854.120087970443,855.052997988933,1135.27497169252,17.8929611691432,14.8794731068878,791.447659231517,512.980418085125,1021.14988752032,973.95868484702,1722.38870117809,1701.29527261382,1408.61528200508,1106.15894609116,788.554508035783,840.685133836425,15.2553336546182,19.5448836184869,115.815396256917,183.009647034315,1199.03029716216,1122.45248351548,1705.12125946645,1689.54414763567,1350.65493564143,1101.86907851394,877.384766317375,108.379236851219,16.28039939058,13.771176829916,490.006463204187,307.851188240962,879.902196956669,840.811165959559,1425.55837024205,1384.40205913319,518.194901946611,987.523802293251,107.764962342181,110.116176736894,12.354022659503,16.8377678348938,14.8009071465215,1236.76799440293,625.493002497096,2021.05732963312,917.884388108027,1136.55013546932,12.8828849471821,1685.68402439044,1759.1276626098,322.931479452425,21.0038062112961,150.511602107255,17.6735720254997,585.291113113085,2071.84093833602,2007.59143623226,1611.74573608037,1852.72493260048,11.5796338339304,763.281145329825,1053.84217132096,1034.93573500112,19.4368531154287,409.261067991046,14.7937730109868,309.322922425957,2026.51062437803,2016.04222612379,1572.50434468535,1692.08695283351,11.1771476903656,468.833005297828,986.343803054751,18.8287030590692
,92.5,1127.20654982783,964.881232575228,995.182774080839,1466.9070400353,1734.97369543342,1614.2288621513,862.638567711687,761.213635612082,480.709101874635,727.798952268688,466.168140985045,190.381260489127,1021.35427045622,679.885680238056,1014.15203971885,666.14663137903,805.4075329513,825.353249587328,1022.24039195085,1124.44903984804,1042.42348162972,533.075700082991,546.697726335585,696.707039680659,16.1884214833141,13.7183414605008,475.778905792702,367.419913444016,650.380509302636,616.497230458192,1138.03961747734,1115.46328041884,873.389836605498,716.556833166405,472.053873391804,502.210602361116,14.1352694187239,17.707192789213,68.0810988207313,109.144037971799,742.418124865233,686.129520263699,1162.78884420649,1124.16719525507,862.243791545267,885.146866203094,685.557547076666,70.3860312447833,16.0098774530652,12.911998717733,294.29463178352,216.037577938098,547.756693049575,532.374555974313,992.672577266095,956.463434742506,354.28927311079,628.601195349079,70.7559604692985,67.8963211998176,12.4178615198856,13.1193773924815,12.9117617997067,961.337291057849,391.964008965963,1464.65392289497,603.602082385091,756.002163508658,11.0190772071493,1155.71046469796,1202.52109734237,172.746731275068,21.3995503665259,95.5317508390273,17.4500481861822,496.183103215271,1543.74828669565,1462.10033781634,1090.62222978511,1307.28269096833,10.3845959943233,421.270573650666,650.724341535684,632.896646113588,20.2001855072077,253.862150453651,14.8575255870021,291.273734573435,1463.75238374508,1448.83769117706,1050.87115091277,1135.86094018165,11.5173786881577,382.058509413103,729.133486261158,16.0126768204877
,93,588.315812635701,469.724223503073,491.410996594329,917.171468345358,1103.42386902152,1024.3363876007,552.746603660143,478.800983324453,315.688915964534,465.253286828658,280.428075824461,112.88230373406,492.465991991013,305.423525662034,479.535960720915,394.846640374102,473.751255086755,489.786630778065,561.601329055373,615.825198194187,558.60095733106,315.956880072512,339.502422510059,339.693557095058,15.1192424439117,13.0789555508881,215.039154839839,278.186219907558,397.720190635254,376.706265683428,631.149987135052,607.572034960626,459.762635484316,416.910990354164,266.261605244208,240.360943067901,12.9474434564289,15.3390755026454,33.096275833175,74.4621922634681,401.712883306041,368.601499007859,693.400921660797,633.531961645181,467.587853005259,637.003501701782,481.21122473252,38.0589052979615,15.5820498858035,12.5572867282081,133.682409138607,141.72716771665,319.339362157463,317.844459294766,611.047193530382,581.494061394739,216.810448248915,388.970654346994,40.6359628648293,35.8537545420934,12.7665468415802,10.7251839903977,11.6329007345228,675.486256335072,193.35583870777,921.472589063558,377.484151155295,472.464764632184,9.82482971854483,702.029872760107,722.349752831724,76.1456899470616,21.3579033939139,48.8335867295598,16.8214866874538,398.213006624692,996.76329547121,918.202215260098,615.383774048882,792.204776457161,9.83913786345602,251.783815132917,394.145539582832,378.67570490509,20.950380047329,122.82447041004,14.8213275846215,263.495656711531,926.396239813857,909.083399287435,589.714139832562,640.440335265626,12.4366130009946,313.009976132551,520.557087253184,12.7206868071881
,93.5,186.327783987523,117.281864197543,127.739277793076,440.656852931746,548.718652637161,510.871226726976,296.371693926842,247.362325123794,177.469499852372,289.056696692136,185.510178577555,60.4205292301676,127.273264556013,69.6577297790985,118.268821644842,236.395722757607,268.992788429943,281.067899735073,241.835283627372,264.316728452904,226.503819605119,182.042575525654,212.449797430064,107.277969133556,14.3061338432771,13.1564481344416,53.0667585717692,217.331446639599,247.632197178447,235.565616605067,261.008661348881,247.168281237555,184.551640679444,217.736139302988,158.579795044524,74.0218168274732,12.834490563597,13.2178411825124,15.8333410009612,66.8504916132905,206.873068221512,191.362660526402,369.034935813685,293.438144426526,221.719103943685,407.170056396101,298.671787396673,16.0406956462092,14.5030308076304,11.6824085671526,39.0706733272167,84.6250900553016,169.775036022521,171.156923163214,291.308412446142,271.341727565541,105.927162966982,239.551780710431,18.7230729756586,19.1444599243921,13.4074730709688,9.40656312382475,10.7010047138433,419.7089986883,61.8802941954383,480.168292025118,234.273119931975,289.874160229806,9.25484021665272,400.698747901795,393.813818272363,29.983233438268,21.0738180017563,19.3828393259279,16.7728650618068,294.836585397872,556.6409673933,484.248877674516,289.317788576732,416.085037415176,9.35447497266853,195.7869358023,260.949199765771,254.946297863953,21.8236502805922,35.6697328145424,13.2295552402447,219.445234346787,499.52235229398,474.236586509646,267.872636449188,298.375141081358,13.2403541544456,253.207987828421,362.736656943871,10.4282882753737
,94,39.288536088458,3.15733257618729,5.04853579566282,169.810708477603,207.894595900887,200.754753591751,143.206164542227,113.029441019693,102.41785292924,178.881539302268,120.427179030445,33.9049470324544,10.9004172149881,7.51085463611014,7.83373165701312,159.562830241767,162.990351276884,174.490865449235,130.825721110461,142.60657957985,114.615820213168,101.83093963271,133.519445705858,24.3273611803238,14.0192221248267,13.3306743820126,10.104966553232,183.320740372514,175.300489040983,169.59426438939,120.406148893041,116.583751411542,86.4455506412064,106.478040075617,93.2838295667209,13.339313683266,12.3511241962119,11.7460403374411,11.702747088086,62.5529801055868,121.502750505092,113.946734411234,243.233958497597,158.390465863859,147.216687506795,256.64958460499,184.080491017612,8.75372528356036,14.3168619088311,11.1242631705022,18.169110816964,52.137795792645,74.5593888601089,78.7029819250988,84.1018697553351,80.1954949123283,40.5848932970099,142.764467761988,10.5354813442352,15.3577721525454,14.0766450233098,8.43837118646991,9.99330136097592,294.32417159429,18.0942031213471,249.519987501745,149.472744888066,184.283004161165,8.82276794386621,300.258343888827,277.246799999695,13.7486343374138,20.7490094672743,12.0470352894363,16.6608863175348,241.105273540663,302.017648042275,250.204225100802,137.322968912911,191.438157590878,8.72787493960357,165.656772631644,191.556142004549,189.219391787401,21.8377286299849,10.6178700324363,12.411924689339,193.713410146365,271.841861220497,244.999531790771,154.379745740331,169.809598469859,13.2551910982577,214.75216521396,268.015884502487,9.30319023291486
,94.5,39.7910643802012,11.5104401381512,9.6787767165257,100.539361718902,106.720591299969,106.976665177331,93.4128279028571,71.3117750516386,80.5934645382439,108.858815088346,73.5059752275912,39.3054766594096,19.8382567909204,17.1858574506799,16.1137422166947,119.604705684212,108.739095694968,117.353915484604,116.497701930645,129.854980108499,102.312974134999,58.4595315428736,67.1068140111179,18.1436952503286,14.3873615000189,14.9844363094703,19.922871682592,124.909883028294,129.42091783239,123.409000493398,117.760589979532,113.260253150637,89.6239752460465,56.4911158232421,53.4024221362117,9.83850617209328,13.1430089394321,11.3435580222853,14.2645538843728,59.7328086424282,84.7100726394162,80.06328291688,222.456800764021,132.050499007029,142.665596840156,125.101874302435,87.1225269481093,12.0039152376024,13.352972648495,10.1460338751535,21.1954456269419,35.5347087082898,35.8428493270313,36.9276791500838,19.4466987290112,22.9094912763203,20.4247819423632,80.1347054769433,9.9160673025724,17.6084630231272,16.7002963130064,8.94244400758055,10.1056572474943,208.426163783882,16.5640823699331,149.160518079045,86.3980269340068,103.337625270213,9.26028506362695,289.681808962665,268.698175647026,12.4708805520612,22.3727830459333,12.974305658,17.0300211578211,199.223118735034,187.424986535074,159.929487077375,77.5725058966032,80.754451335098,8.54169260441347,155.065763046541,162.18815036743,162.230816277297,24.4477572664239,12.8991037495925,10.7057465059427,153.474813061939,192.819004235786,167.513874657301,140.758435738601,144.794510883,13.3701436790564,179.30179870266,201.265689342027,9.62963273264177
,95,14.9313040866579,3.57967704464124,2.11245254699099,38.0357106122974,40.5864887371471,39.2415113801593,36.6977903992636,27.33340335474,31.5159910233414,32.2279227058463,20.3135273236168,23.1248182393247,8.4472070364892,7.49381643891081,6.46224903737391,41.9992126290999,36.1562068363346,38.1772871474012,44.4791544913048,50.8944461339124,37.5784820726232,18.9460013574602,10.7213268114142,6.49023838562653,6.38286888423818,7.1351769003918,9.83803109509074,28.2294834906023,43.4590247031725,39.7696632348814,49.1841906697193,46.8205284610364,37.1613305275646,18.3697056548222,15.1142274060278,2.72848469011251,6.20481004965541,4.93822371258227,7.21791837223032,24.1269728964176,30.1134273163459,28.3323397520172,90.7971012269504,50.8787256449999,58.5059452203081,13.6005098876924,8.84167145023105,6.42012594899404,5.01018436083007,3.67697360947795,8.4149926250135,11.0530532455593,10.5154239868272,8.50736953724072,8.51742865794097,9.07457230345335,7.17931801515135,21.2280892872207,3.81257880895168,8.35842285546289,8.30499947096928,4.24912414506218,4.44984832100067,57.0937937359787,6.72826201483247,41.4467563043011,21.1443832630216,22.8767762975086,4.19364778236854,120.04923721837,112.762058116983,4.9415707615907,10.3383247895721,5.42518648475652,7.47505000773219,67.3861014716746,60.5599126923202,52.8996078520489,24.2194176610342,21.1950936342795,3.61937733596449,64.7566545681212,65.5967398026439,66.4323725567702,11.7870042919424,4.77283137825725,3.53807437342607,46.987037706915,71.4807688471984,60.0852873144968,55.5924388941869,56.4999689062546,5.72961209758091,63.7093383821867,66.2760580288783,4.29920372409106
