,Cycle,A1,A2,A3,A4,A5,A6,A7,A8,A9,A10,A11,A12,B1,B2,B3,B4,B5,B6,B7,B8,B9,B10,B11,B12,C1,C2,C3,C4,C5,C6,C7,C8,C9,C10,C11,C12,D1,D2,D3,D4,D5,D6,D7,D8,D9,D10,D11,D12,E1,E2,E3,E4,E5,E6,E7,E8,E9,E10,E11,E12,F1,F2,F3,F4,F5,F6,F7,F8,F9,F10,F11,F12,G1,G2,G3,G4,G5,G6,G7,G8,G9,G10,G11,G12,H1,H2,H3,H4,H5,H6,H7,H8,H9,H10,H11,H12
,1,97.9798747474342,103.217714316006,196.411376919872,-361.567220430332,-2698.92100638542,-808.395674120035,-192.557180810418,-674.583006688354,-497.6680776823,-902.474238562188,-364.753771603084,-446.098375563478,61.9368433433046,79.3123704664904,74.7498765238979,-307.90821593181,-437.266051542161,-638.766468560305,-455.863890291605,-59.3456905158537,-298.496658963321,-835.64576196322,-125.739448860624,-365.164909442634,14.8500440598764,100.736739103651,53.5675121898985,-331.094762953133,-3017.75765385736,-1346.2189632438,-32.5132983620679,-359.276717627489,-175.749831281357,37.3152636222458,72.2472037407397,-12.1795788852687,27.5142756040113,80.5220673973345,64.4390386642863,-56.4330177021347,-399.991595794334,-288.054747074272,-146.015372718721,-923.009955528377,-282.439011193055,-336.317244303305,-3206.0750948196,-2100.66104145706,17.3537028287128,75.7558989185909,68.0508717263692,18.7157854962743,-284.832294331485,-313.190100657592,-269.663538772042,-169.451546058563,-93.9797695175803,-1026.34490456611,-51.8011577291172,-286.820489755056,25.6745517326572,53.6531764728597,58.0813480635707,25.968608993232,-97.4300696986784,-43.4960236213437,-438.817009522836,-726.249672301783,-507.122115974567,-534.214243983331,-1427.71909632884,-570.560628469128,-23.5101386099632,58.2554090973572,33.4393711273424,43.577498055377,-136.156864015989,-65.6835069186418,-98.6836714342307,-140.227478940991,-83.8136972145894,58.832159643066,87.104274792785,31.5466563400178,5.27328013443639,8.51447723404817,41.1362757214802,23.0057341352158,25.0175076331361,22.824503497618,-186.378748087986,-202.643781264007,-452.147930457771,-647.76465226527,-506.365936474597,-547.175990068306
,2,151.204198108907,148.365982334642,227.754921845851,-203.280752541867,-2161.76265547192,-216.382763527976,-60.5386443976568,-129.159015533154,-235.915647641819,-196.23879093408,-154.891405361929,-175.325318970912,66.3960000822426,53.5329135053389,55.2230521732163,-178.254503729973,-408.354708628196,-297.989064453235,-212.12869810746,-8.60073075729815,-165.728928233289,-488.761237431378,11.1671442883926,-161.24225003539,36.030873356206,71.6052513023296,42.4352001717843,-121.113409970771,-2545.6268783232,-403.148806971803,-5.12927242269143,-118.944293514964,-118.932472577063,4.03771518271788,59.8045744424589,16.5758679948058,59.6048751935132,64.1787175862755,54.3737625136509,12.8015627266832,-333.105713620182,-133.739491220011,-22.0270213908971,-531.634834050514,-134.637696902482,-87.132831216215,-2123.69402987538,-960.434273431321,41.2187514116449,48.5903799447251,53.4329082414224,16.3610101725599,-217.968578590893,-161.207362797894,-66.8156158373467,-54.261530396805,-77.6345513923916,-622.408574603111,-19.690935093603,-125.981255264862,48.3633692938702,42.3100755274709,47.3426145951435,21.6600769354145,-69.3349790881603,-30.9832403247474,-122.084696012156,-122.154694332599,-220.792699462187,-276.6568790657,-765.73010468022,-88.9276305814856,7.59378396686589,45.0975693060655,28.3711126380267,24.3961373428992,-115.797142940968,-43.0618375842123,-32.9858141851209,-72.2158004735202,-45.2679345238685,48.1412157318464,64.13496078768,45.5990299032992,15.7053143503808,39.3011363939331,42.7110407289683,31.2225768188691,34.6882840745566,23.1409579274787,12.7601527422412,-163.019154142803,-100.163444460675,-405.8462711458,-266.098759703113,-235.078157637905
,3,179.349969035912,159.388169397617,243.948632618117,-31.8980130920518,-1762.31670886741,-46.7070893467644,-24.5922530999596,-43.143287600582,-86.1856299390984,-25.9276364120233,-65.3411421627143,-55.7902904570292,44.7386325309135,36.5805363909949,37.3886540333961,-30.9129695784613,-339.542639360396,-29.6833321611011,-36.7307516336487,2.22916518381771,-13.2660029976259,-98.1973483559286,5.27684149817651,-49.3713177232603,27.9226292313288,46.5836435124547,33.0214241243075,-17.4360856988696,-1784.66543615951,-1.55981138839888,-3.43399000715453,-49.9971797730723,-66.4115639841448,-0.794720326833158,36.3628469481791,24.3068169145236,46.6405572185868,51.9117462044987,39.3493365098466,6.72477938909196,-219.931457985105,-19.7782048933914,-0.857714262453555,-54.2817811475234,-16.1117031010499,-3.49680109722067,-980.211425830888,-486.204723426354,36.4276573885527,32.6178903561095,41.9512141109835,7.6321498585603,-150.671414299859,-13.3101664134765,-15.3183306664532,-19.0924936529664,-18.0576969353006,-122.184282618715,2.05225324188086,-25.7081917633514,44.0272192398843,30.9140939954532,36.9211739527145,18.8502338251674,-31.2182776843229,-2.3217090565995,-29.2818810826539,-26.9172050047073,-20.8857249507873,-18.9453092893691,-210.670728364228,-8.43754774992885,12.5043278370485,30.9044074970698,12.7391912556313,14.2850096165548,-70.5674974583571,12.3406532379131,-1.52566692201162,-6.08564449567075,-11.2566448930629,28.813903421581,41.1944122783807,29.0824827903925,20.4357365451306,24.2626562628175,30.9930827086519,18.6903980824964,25.1170463512426,22.3690742721337,-19.0464576433969,-15.4260478738743,-6.4484942758645,-72.5965862202029,-34.6979246493675,-40.0770943328444
,4,217.320611892874,188.090762983868,293.201762755743,-1.24488602942984,-1129.3475585591,20.7398802172102,9.94253494724944,1.70744256902799,50.1418591727979,11.3892693826674,18.3488502695936,-2.37740563843181,28.4246824710626,15.1777062001574,19.7516203625783,2.92700353170585,-65.0231585652,16.5550184461044,30.7445408770836,7.50162088683646,32.570136327764,157.286866301432,11.4127543249779,-4.2363587763557,18.7068050248108,36.1046981000145,21.9516539135939,18.0531030730053,-844.046919408005,37.2293016536823,4.76406918387602,9.28017479000755,14.847539254296,3.03543205344158,29.9367463066019,21.4255985877244,28.0000950419835,31.3910324575272,33.9991117606132,11.7592031743534,-41.5976167706158,41.8088172641192,9.23445181225998,75.5519736345323,23.3088513222065,24.446439072588,-289.738503539422,-125.060627952171,29.5741622333799,26.1688811945287,30.4976248507783,9.21844073017928,16.1602036401291,26.1397132734255,19.0059194760852,35.5884695747027,42.741166539824,169.987375525789,12.2097465520201,14.1569350391446,26.3679735226015,24.7300940727573,31.3794035140063,4.6904952246523,25.7254350375752,8.51101988427854,37.6537079139252,10.6276622140267,41.488245730332,43.2149870766025,200.407620310152,27.6899202494842,6.91564369738808,24.5250340359407,15.7740374929826,10.4252141846919,3.63286433028588,15.3085491934216,9.66738104510932,12.9443164327495,11.1210308632626,17.758139133357,26.0235990846804,27.9213844748228,21.076864192265,25.8949954387599,17.4989118819421,16.8485836265372,23.7827310725852,15.0017374553108,18.6145227582056,4.82255697300388,18.8527770025139,133.547388893694,64.8259281787723,60.13490484254
,5,263.623013125081,232.159967994615,356.547742869185,20.9833390378535,-444.67043854164,35.0313857170149,25.0717407611264,21.4328791369535,51.9656871752832,36.1140363598315,52.8911115119608,51.1756838323017,10.1042840607051,1.3058203389246,-5.27683544399497,33.5535180951028,194.68821727855,48.6976478794422,51.4179510047306,12.1930252950669,33.2062467137812,142.064200782363,39.5400300953697,29.6416798764785,10.0370410010864,19.2713984941065,11.6913902401175,28.7329655299473,-190.99224102347,43.3881338179472,14.9211440980935,22.8011310828924,52.2827034106349,0.224700227334324,21.3919440293821,13.6047750177886,17.9827397914505,29.6706212085928,12.5216729584927,20.24126689277,94.3654364118829,38.3676666970659,19.178681815114,95.4904078566051,33.0288464105115,29.2517976620111,66.1946685784023,-30.2579299012341,20.8505526329163,20.4046282769887,23.3992464780504,7.37776085914538,249.792207926508,36.4210573944047,26.1995457876947,41.2116576521239,70.2086339257348,169.404896063254,11.5903925953871,40.9926403349127,27.6348012796107,22.5449719730914,27.3023787405928,12.6647543819763,77.6385837880216,19.1878092078941,55.5135114399855,64.7387175918211,49.2155351254332,50.6050483793661,187.506237288168,41.6664532303148,2.91597781391283,20.581367388022,12.1742437331441,9.54158440691117,34.50065319031,21.4423496118161,22.4660521410005,9.86218168300911,11.6176547826426,21.8551742858444,24.4189292089495,17.5835184980424,16.1844505872486,19.1123937945922,15.1300909202955,7.98514251263805,10.1506423675983,18.427981686873,16.8607043205539,34.6836717063379,42.1409331219802,147.770357428699,62.0883598867749,78.6802921032449
,6,351.236160143137,309.320555932697,476.590452312877,33.1678018795828,-76.8672828633207,58.0480935514515,32.5031133353023,39.8044011063666,58.2504079823975,43.7150192220197,47.5791186743354,38.611848801007,5.1817580098259,-13.9607702154535,-5.55862164400787,27.6252765057143,383.363799754918,56.5012552708813,56.6888243578051,21.5263371936207,43.6491206549663,115.868143717309,23.752387179582,39.3699827939236,3.44799292101834,5.18278016286058,7.30502443876776,28.5461256450981,76.449675775013,53.4091794681444,15.749202569853,34.4657899050508,54.3686186504619,41.8162925895813,6.8651907286594,-0.383170275853445,18.0086241252402,12.067540652527,8.23793577189554,11.6050593759637,149.894879681477,44.4742816671378,20.1892474984361,90.6040974319603,35.926873358052,35.0991451413793,186.040386190649,37.7410294114761,13.7178263729338,11.8755193585312,15.2761252886603,5.11034088801807,220.230096057936,38.2849028011378,18.3985547981592,40.8326040852226,50.499357202737,128.900162349344,13.1005477973749,24.2914433208216,23.7859925411858,20.4196162602775,14.969259336146,5.21026557071673,56.0761165605354,21.8932437886906,60.6805794843713,63.2623343004434,51.7478801126617,45.7719902606932,156.372495003689,39.4276351022763,8.64442143806809,17.5456980724257,10.17865937432,12.0918047643163,29.3401033464534,22.6648425119065,15.0126354649483,14.0376260752673,27.3205685367575,11.0105715171667,11.8948128126713,19.4587156249754,21.0901451205991,7.75679376566859,5.08971100978761,7.84008884818559,6.47443378983826,8.33322663710987,24.3696299386374,33.3303308536233,53.3504337397462,93.2991253666114,52.5440997547939,80.7513418560447
,7,496.971075243584,448.733364889105,676.981401246038,39.063432876681,-10.8007525918219,53.3720654389926,47.9853865893347,52.0371333132753,42.0805567709904,25.507199269623,18.3913871502391,42.6016951910206,-23.7294504286483,-14.5375164578381,-18.3329879160374,27.2273593980335,392.12642997068,54.2607146489809,58.738652566768,14.2011542132941,26.1159332086472,55.9083803988979,14.4406887202422,56.9398186816597,-7.51829919316242,-12.5572349609447,-7.84492503156434,23.5130571330355,189.05415715542,35.8090600580435,19.4979520004154,32.1731447760412,46.8056662610488,2.6474752328304,3.74133468597211,3.46623558738884,-6.57030991738066,-2.30979486761771,0.0314723869132649,11.7110630841762,185.723881626849,35.457416305464,18.948592058121,60.6910073177114,44.9492913852155,22.5087265578768,221.952804333661,28.4885244719608,11.4548761559927,10.0676389083337,9.99876632243104,5.03531656820087,178.281341558304,31.39322849581,24.3666297405989,29.4590493547184,32.5409391711064,51.7284319866139,12.8129245547143,29.0949526364511,16.5808065410365,12.4111302363081,17.982258451606,4.13558134667437,47.8207055983694,10.0268094596786,39.016319537317,41.1097783527057,31.7786063762942,44.494113087816,72.0062478464406,10.56217584156,3.09565517028659,7.59639399885418,7.54986704774183,4.42462730884472,30.4146467769569,18.0396042536231,15.2588628241756,22.8338376099255,24.3612816592113,2.87035302996537,18.6211069989149,6.67243648772728,16.7755932576802,4.33812936123104,2.4884876981705,5.13237520529674,5.65171989513783,2.21025894905415,13.7951058473391,13.8539425079853,32.9096547982372,49.8023329534117,37.0613554693155,42.6620213414899
,8,717.508143411584,678.316298359156,1001.46600876488,26.0059626126949,15.2300795338906,39.0348839642465,26.8840284698417,42.5078880219844,43.0272526643821,18.4709605829503,18.6753129565186,35.726348353106,-30.3964991613238,-12.6712570895797,-17.9340453411496,17.7777621049354,328.584420584624,18.7543375116838,22.3112952689717,15.2363432168204,17.0507223890399,-32.1310454014074,20.428510649288,44.2729209108747,-16.0429059619173,-20.8518006926024,-13.7143211486,17.0322146251001,226.93118115962,-2.71187556105542,10.6969648253153,18.3933030151802,46.073994071734,21.1637009382803,0.502614372217977,3.43917900875476,-12.5050460444027,-7.7075635944484,-19.9761359893218,5.42473810510637,212.603428589839,22.14063492269,16.6220298765438,25.6736584778155,13.132208117725,-3.50364308426833,233.396631862382,9.1110359764134,3.41630701811846,2.90844138796729,2.5219475353133,2.50190458319958,101.873749083081,13.1919483625506,14.2624670967534,14.3531042260165,-7.99570516946005,-43.1279697524005,11.4092510617802,9.85843785183351,8.18716538693025,9.37168303544968,8.4409255221226,1.63278730093134,33.0989197329754,3.08570493776915,10.2953427030006,31.622043701047,26.6226054412946,24.3151720874266,24.6639113279307,2.28686252042462,-3.47413629498624,5.64367131707968,2.90200475759684,3.41934029397635,31.1060191156839,6.44601151150164,13.458316040188,11.5275516030579,9.67885389217736,7.18962061311049,4.78284579496813,-0.560027794851521,8.02224135185133,3.34887103221899,1.62397733151556,8.79530000023351,-1.26331636925988,-0.545047094543406,8.7494313564348,19.5312768209515,18.754772233302,-11.4553062436262,19.4605418501833,13.3325279760593
,9,1137.33326401729,1095.94456651452,1632.9902768438,28.6018792681716,33.5663608794366,18.2392065457789,19.3094548250847,28.7631721036432,33.6085617092067,2.24928771271334,17.8952047190996,26.8017092071677,-14.693740755647,5.38055372152667,10.0858875521981,18.6758945846977,206.492166824522,14.2652548754104,12.4119174680418,11.3396027786985,23.9098728720874,-96.5621254345024,7.63278440702015,21.5310630763943,-18.2587923510255,-32.7791650916251,-18.66044147305,9.61682981560625,274.376250551417,-32.0674556594622,18.0281279464598,16.3790347460699,15.6104529905369,16.2871622960974,-8.01637581983323,-6.63993250900239,-13.1388642129341,-14.4609003521155,-24.9895432947142,5.82952182367717,167.033753884542,-5.6959998685652,11.3699883571107,-9.42977086343853,13.658641721272,-12.208097577759,270.512783874517,1.29917782944358,-4.25959142244665,-4.67876616537706,-5.87628682324066,4.63112831744274,13.8508225000169,-3.00238017335505,7.52041273821396,-1.01804732138044,-42.5480111078132,-137.496451513318,1.98487825108259,11.107548633604,6.14279847320813,3.04685421338036,2.9735780940473,3.96575431087422,18.4208516923381,5.12062810979296,-5.5439069744607,19.4986468769166,-5.16298850837666,-4.30845419943944,-55.0082592288763,-43.3188855181252,-1.27303418705196,3.62396176855054,3.2604233717293,1.68944618736441,23.9686262968371,-3.03332251022948,8.97845960709037,-0.662507843869207,9.82340636037861,-4.52579207255076,0.890126914419852,-2.4751284544227,5.9430175339985,0.459188063321562,-0.0233277319957779,-4.43848402777166,-6.61907346074167,-10.1890647185855,10.1922158771813,12.8208872011801,-3.3060649884992,-86.0035804250037,3.88800104218535,3.13058049872052
,10,1743.89748015178,1683.8018087535,2528.17273499484,3.55484377123685,13.558752840343,-7.91825886251718,5.10356923798463,7.45701263258525,0.830424167665115,-9.23664275020928,-0.118047455100168,-13.5986113989766,1.0829783268,49.6510708083015,51.5421768927454,6.030923215445,56.1717371934392,-14.8948622212774,-11.4545721988543,-11.4149111502848,2.34843667364839,-193.292217863933,-21.5072145544527,-21.5151902339439,-18.6300606481227,-37.0985317879822,-27.5370711211244,-5.67655891119648,286.878107360561,-69.4532256351777,-1.17747517458065,20.2829855277041,3.52176658318149,-0.0136481295985504,-18.7867474382874,-11.2430791615488,-28.5873493776098,-33.1228275694402,-29.446639214113,-17.5068118018544,101.046266214762,-25.0047654222544,3.84007880909485,-72.1324443759495,-1.98048240736716,-3.0723059608481,284.691704806017,-20.6930847771946,-10.0152912726153,-13.9532949356753,-8.87085264285088,-5.27374568988762,-79.6355519097815,-29.3423625017895,5.62056123952334,-28.5570589868312,-70.9385768514521,-236.446635388327,-5.10948680848469,5.87423411090913,1.98641878513263,0.599871296594756,-5.26378286255931,2.37403608023669,-5.7329462766611,-6.16194544914742,-32.6584161931769,-15.8961115324601,-18.8233051393145,-32.5367563033415,-141.376076107026,-42.9444900739109,-4.31813881595554,-3.3856575805421,-1.92915454181275,-2.00902032994327,14.115288043874,-8.00342580834058,-1.18890468318841,-3.28533927827993,0.485886511289209,-13.9108156995781,-4.01610866623651,-14.0915238107682,-1.70237739116419,-3.61192203162773,-5.78980214209787,-2.91343812736159,-15.4422159224132,-9.62147055052264,-7.06934852613631,6.21828389121765,-17.3252489415336,-134.992064947597,-24.7075068938102,-38.9524340906919
,11,2999.61836910443,2819.34963504051,4362.45110651102,5.31655308917288,33.6026426229837,-12.0640930545633,0.749268778463374,1.4341479526247,-4.33141678852917,-13.8326868008917,-4.14905797928441,-8.83294168915745,86.5384873400617,161.801772727287,153.522115435007,-10.8860138891778,-70.3417480423068,-34.0404477211014,-42.4419704351239,-5.0297832241331,3.67074870717624,-235.334342680744,-7.91932837826607,-21.1017018995699,-14.834557618603,-36.7002502239147,-22.5495050287936,-15.4083724416523,319.703467904797,-92.784174255341,-4.2151275378128,-3.66849664608708,-3.79122230883513,-0.878519550829878,-10.8094611924198,-14.3335127814953,-36.0817646744836,-33.9340695036335,-48.2626014117895,-12.4360504592669,47.1090566758994,-38.1810309321272,7.98421662439614,-95.9633222858083,-5.53373002898115,4.70966610431606,320.979144159712,-23.9795758073396,-19.4227244610165,-12.8623913354013,-17.701743998924,-2.95223446965974,-151.795607293083,-38.4452010135174,-4.56721384282901,-28.8556034668691,-96.1356608942151,-302.540550608643,-4.40946911876017,-0.945368849318584,-10.0514749389713,-0.822513189616984,-6.04425954806902,-1.99234194516976,-20.4139040463433,-3.25460587446378,-32.5448467429451,-24.504768518229,-27.9472851061073,-23.8538589164036,-226.530556599837,-46.0964801427108,1.54200779353505,-1.75684813243424,-0.373982078378504,0.753255927225837,1.45032116933817,-16.3318661523781,-8.35884021163929,-0.932434948803348,-6.27568307686215,-11.1334258108582,-6.72247343703384,-9.79142253796817,-2.96767449326308,-7.99643253522208,-6.24166023408907,-3.13745041832044,-15.8511281030023,-13.0734518852396,2.87519169863299,-2.09168730178317,-13.4648343339595,-142.933160952558,-11.8021897523322,-15.6116407338232
,12,4925.97107960107,4544.02472702286,6979.05830221014,-5.86743836545611,29.7858790892369,-44.1869308726473,0.393975171922648,-16.0194034868218,-7.30028663984922,-2.03700410610873,-8.53014564749537,-3.11026924941143,242.553142372853,360.612902676776,347.426304327696,-0.84609853395159,-192.434924366788,-35.9749702083391,-41.044850508235,-15.3708697082748,0.718584742509847,-287.753258312587,-10.3324495425568,-0.479605574581001,9.81155746059721,-17.2440734517158,-12.2359846459367,-25.6139873736029,321.219749451739,-116.313677028296,6.18743990709936,-2.44668836965502,-11.8246546232085,-8.37447994713966,-26.6976742487741,-14.0967707385907,-34.4125856381306,-38.4901453577459,8.73839324117489,-20.0832651717337,16.7286172288677,-47.2003875935643,14.7597022600967,-133.367964202827,6.25516092947146,48.6323941193514,354.579420211088,-11.1971249193557,-12.7375899053523,-18.544487586415,-20.5910322596746,-3.01590196854158,-240.850889893214,-24.4120319498052,19.1978298665508,-29.6109360460214,-102.282441794868,-355.908395066766,11.4961922367283,9.51596071746371,-10.6419274581813,-13.7546853850472,-14.0023725725032,0.268917447278,-22.5132966047831,-10.428638556009,-31.6538515386237,-0.874874869465202,4.25708729171674,-17.4312560298513,-284.10971493985,-33.4023203404886,1.94993468839311,-8.4453945545738,-6.2800538839947,-1.2352612691102,-1.90854752834275,-18.4356905420746,-9.41128344565004,-13.5535961065516,-4.2720770408614,-14.7236826107483,-16.772709046415,-10.582160643602,-10.0097694736533,-3.84022489559084,-6.53713460205472,-0.983743605711425,-16.3235716935224,-19.3552196590636,11.7761532816639,0.614582199019424,5.87081230684271,-107.468542744025,57.2571401497735,50.0005426476837
,13,7726.59909366672,7054.64015629588,10176.4145374583,-4.86240568898938,-8.06384549141694,-28.5815309437148,-5.37653331810725,0.292157011275776,-16.5312287380621,25.6340002301567,14.6301800015135,4.84535702141147,520.734568940165,703.155182614242,686.453482500129,5.58789714496743,-332.26585735825,-26.0416262571289,-13.6899173564507,-16.8186587360533,49.7554243962295,-308.841047957192,27.7671631929152,27.7884651942604,60.9411065137529,21.9141546275896,18.9173946840392,-11.5228863396023,367.461771894552,-124.653250425619,-9.35096359551608,-13.1350667792567,-9.61892829208227,-20.5778354741797,-22.7737863220491,-16.3062266853358,-39.7236345057245,-40.0387615110176,0.741786982712256,-10.6428640595723,-55.1977032687755,-42.705320474357,25.1787656498918,-125.701613579298,20.5549624362448,122.481100014131,399.462922222672,50.4535496147073,-22.9999449047464,-20.9868984118402,-28.2183295697632,-0.281499331678788,-287.804618330974,-20.9285686995918,33.6156734318174,-5.80053246051466,-78.5092596677187,-380.337109237729,21.6726368256841,41.1647682592229,-15.6919279051108,-11.446834461537,-9.24799442284893,-12.3937085665793,17.4771141235433,5.77049526324572,-2.72037161380831,45.9545215536473,70.4620426964084,34.7775750957426,-305.263853091408,8.23384554173754,0.399999362082781,-11.8667902077868,-4.28814284610962,-6.74374865940172,-3.07738548449561,-28.3094088236494,-16.6155564846804,-11.7566746448638,9.55436917374936,-18.9481620371489,-21.9081411839488,-16.2933507964808,-9.87890777899702,-10.8513307681787,-3.86805563520738,-5.63032317050147,-20.0766997820529,-20.2923722563864,53.4341784706212,40.578144174382,59.3964765765777,48.7336922100621,210.697160505842,222.296283439387
,14,10572.3316503693,9665.53493860812,13141.0666616931,3.74566310184855,16.1640279401272,-24.283671210811,18.6442834896752,12.6967025917293,3.12199876929662,106.316536625871,88.9550762256167,73.0803575300797,1036.42571848149,1333.00933663151,1301.42798508707,40.1733105808853,-471.441065758117,1.19555153145484,45.5653581840015,-7.62868544822504,135.044049301268,-263.571561614166,143.650850906253,90.8836988315652,172.284225641629,108.246334574847,70.1209844151654,27.8318962300636,382.641781795599,-90.7507252893647,4.92855200770009,4.42724273516706,0.634870840670374,-20.5190469719264,-30.3328538995629,-16.9167057259165,-32.6973692908905,-34.2187902641381,4.78621787260272,13.3462458588165,-85.4414444637896,-18.2513948802634,68.6858402541284,-85.549499627492,112.066591541567,326.486614587504,515.747319130292,122.370055703743,-27.8731687945265,-28.0569618256795,-24.4111253728752,-3.32778213715301,-309.165299197073,54.149691657185,104.073425195155,58.8644849962111,6.84212321116411,-294.726244274834,87.6259455952359,116.722564701127,-22.0575613155424,-13.477612632405,-19.8408393891996,-12.9802144719706,98.413318443575,34.4283314712893,97.8654029797508,147.845937198803,222.105911044577,152.933373825603,-245.923390731999,108.685260594122,-2.25128057727397,-13.5207628163453,-6.39197428188436,-6.68606960873785,-15.0032921206775,-29.248281127384,-11.0432175279275,-4.05802872999266,21.9061704718379,-26.5348517766161,-27.1819185366521,-22.9416783743382,-8.03618662736608,-6.0448301417573,-7.94634153310562,-0.44741219059415,-15.0555385143889,-22.4908565145242,143.314750641037,139.587256757119,208.754546797778,437.62129169095,523.224021759477,570.710410017477
,15,13189.1958515153,12149.4443127009,15563.3746812097,24.7414984006773,37.4723971375734,6.04735779504517,108.25122084236,23.9725278185924,88.3364411402017,309.471153607024,214.570216976612,175.197264881039,1921.9440399933,2396.08574888447,2334.19606962078,130.421686558564,-573.516320510525,107.795209280892,179.598862440871,13.9524909128659,335.343443444955,-115.803003571054,347.596883007151,235.610076046605,335.486296344212,256.788029704925,174.592732358421,104.32869441279,428.994053631173,0.230003474713158,27.2746606128367,8.09290137338758,56.6047289571861,-24.0424374538288,-17.314309140309,-19.8420643693407,-8.6747958246915,-9.03821074105235,26.2662315848384,53.706789559782,-105.921060801105,95.2111168005667,148.422961105214,27.3565485043328,261.768790591547,709.399083484252,736.940119320214,305.514325955319,-31.3746991158323,-25.9985680302161,-32.6713642996119,-2.61151355150378,-228.472042242838,160.341292151135,227.286203973891,216.942339903715,209.027557683739,-64.365187509582,203.774992789679,251.892976327511,-23.4874715528504,-28.7521427437559,-24.5694951742189,-6.20084948318527,278.501795786188,103.510788800389,306.132816979547,353.2963753857,547.294138164098,415.987995624948,-82.9074918858969,357.038167509258,-6.73077911223209,-10.2688531470312,-4.36317392262572,-7.26771415508665,-6.84295890183694,-32.8406137570073,10.163369120859,12.9317305676896,72.2876730412117,-24.9938767285421,-33.9098727494693,-24.4974055181819,-16.2037073219308,-12.5713821762811,-9.63114732409394,-8.42725928210166,-8.64207543910379,-21.8421022925559,318.194557068779,306.631729588527,488.170211955623,1131.76724592485,1115.54690078486,1256.02820238498
,16,15306.053796126,14264.5634236196,17323.266053419,82.4141780487898,59.3418230500083,94.4724398352337,216.237864247347,115.135871971657,211.873444483179,598.620084148224,447.417414430054,378.853116336546,3261.33795807829,3954.4255059344,3866.70922442571,255.344852950038,-648.737615239204,325.816941126403,423.76548928808,48.9417660122981,679.230117667732,222.237397778552,681.484813787869,508.253179061747,616.073410385601,493.251393078481,340.760772622933,253.154231836281,507.661613369648,173.875579653046,72.4952273295021,47.8484530310589,152.262585269867,-25.200120268014,-33.3507108035374,-24.7281792440754,26.0884682174028,33.8933198426639,58.8059293672732,117.105179688881,-114.451255636961,263.376826781765,281.029828938694,295.639766568373,531.598604850027,1326.40713544389,1071.94269005638,615.018165316753,-38.2297441560631,-30.7759134108237,-40.7595850655471,-8.41746770019381,-26.0757499369429,396.677549322494,432.109569298421,491.448319468065,555.981336780314,356.556984924462,394.043537383728,494.290234612825,-23.1850491599171,-23.6263945700921,-31.863673156794,-11.0579991694149,635.935355630329,230.715765573706,682.255477843826,746.44005044231,1088.63658098983,867.466640177305,277.47249292185,758.156094983657,-7.36775960513296,-19.9769962152313,-8.78514522436035,-5.983298712742,10.0577632175991,-31.0555743611922,53.5892920186834,34.5236172694104,149.783270009342,-33.7680745232128,-42.0727126696302,-34.6330953716251,-15.4471770161545,-17.0911668696499,-14.638375766951,-16.0048151783785,16.3516854201489,-11.167117486757,609.769438863808,626.190108102895,1004.36578736623,2258.72422427822,2100.59886952625,2328.76914980941
,17,16782.1018796356,15838.3223609395,18483.7777230175,260.692541545432,283.954932390558,353.089316223399,504.676173957332,309.380018471395,526.006520268003,1318.06205842555,956.183276744865,832.836746365267,5788.56609006429,6840.81369076812,6719.88344334641,575.772651510175,-592.30308545727,819.814251891972,1008.12592042602,118.369978062624,1450.94332672441,1008.13510103177,1470.02385817959,1101.1521275512,1215.35847954886,1013.06199447412,702.756671775638,608.899400446357,669.029909952158,640.255499493904,209.836509302819,148.522627469212,394.426425968398,-10.6187447614711,-26.2049082434332,-10.9038442583887,120.040466662414,131.611887877711,157.898799812109,312.829746015259,0.985792934869096,739.099219022733,615.89540401948,924.684997804447,1182.88953964305,2629.65930049944,1817.3538197752,1232.76896422177,-34.8161768089585,-26.7837608310674,-35.5243934271739,-5.51879183239089,562.669282634697,935.047485251513,927.632841515318,1112.76654358258,1378.69937398843,1349.95667974969,839.72442632401,1086.93373860564,-35.1765707325621,-26.7179408366028,-31.7678098582774,-11.2023294522223,1394.868453493,526.69210539404,1513.04877791742,1605.88696257543,2244.40891612588,1867.52912126976,1104.59152068585,1647.01851178144,-3.71998425512811,-21.3808275224301,-11.9474919172635,-12.3849277287791,55.7842619321455,-8.78286729453794,165.062928669883,114.166562751845,346.86369963896,-25.3486043728435,-38.9014027702433,-24.3873647345608,-17.7331086962286,-17.5315161996896,-12.8160632312429,-10.7570951152456,73.8609858494428,25.8314581581844,1247.12961570336,1331.58653939416,2084.35842833078,4223.62126721257,3974.33370476909,4363.91494820776
,18,17847.8897194659,17001.7182665288,19279.9731608098,505.930165264701,502.916573688653,721.730765480321,939.613772754623,597.510082473485,1004.61896198583,2266.80047888512,1719.29741801351,1534.16514591114,8600.83548037037,9814.07485441103,9658.65432163093,1068.7541111741,-454.990562948298,1508.13659599754,1828.77983046032,241.217388908676,2521.56482483251,2029.74826437596,2544.36840654666,1921.63026612211,2059.71845670854,1750.85387097523,1215.65871016738,1110.98504708046,866.755956748544,1290.8023795455,398.661212389263,312.209691726467,781.085235339773,16.9600057563357,-20.7043913034922,-6.69729246152929,254.469490913463,289.45306307839,295.300723861544,578.946814567505,140.98453382948,1412.76119137456,1095.61980159269,1822.30697042065,2099.06043333837,4207.47333746459,2669.55682767001,1999.36681648541,-33.4611159608858,-28.8327559662412,-32.4048043145876,-9.86907370879544,1351.43342559571,1750.05514201201,1653.9000191995,2014.12263217485,2542.16948831231,2578.28658830097,1495.94473833818,1922.49614647213,-39.1650239640358,-28.491036353922,-31.6737225256247,-7.37973017217519,2515.82068135135,984.563207465644,2669.63217674207,2791.29333700366,3714.35350790863,3188.46355837675,2220.77058765506,2756.44951507098,-4.22564940472603,-19.905949544539,-12.9474457001334,-8.35244479086123,142.949552595048,30.27944608294,331.809544111329,236.691754042343,655.689371362932,-14.4764705610814,-42.7876801690854,-32.1475029833246,-19.3734583052346,-15.180552004982,-11.1995840195978,-7.54505898429852,195.282816461671,72.9645784287932,2181.99308529969,2350.53449227026,3586.64676914436,6116.0176692425,6155.55042252307,6559.40600383686
,19,18537.3338822222,17793.3331803048,19792.4331051092,1009.97105961664,1000.10133954535,1456.09618245257,1817.9553932762,1162.24046327983,1923.90744462867,3796.50175766925,3087.16964921412,2763.7494871235,11436.1982124972,12705.3475569788,12553.6829392545,1969.49437560615,-128.446072340892,2777.68878860849,3298.36570296059,460.32236703074,4311.74745947619,3519.65647629421,4274.28186277216,3243.54116638194,3610.73604026131,3118.13777291717,2211.20937904106,2042.7422249933,1277.39475265359,2429.17351824447,792.187613527998,641.005491093883,1520.97500577436,76.276459690107,-3.03598697044526,18.6449424754273,519.315555026425,576.452657824083,556.923814295352,1120.03358176286,545.137728529591,2716.57690047313,2018.87649046462,3378.73190162281,3747.61395138946,6512.91155376072,3871.33943077263,3035.15439644691,-25.6644348339978,-13.7473306479815,-20.613035556762,-7.60949916686423,2731.88999079752,3266.56847290879,2971.00903852831,3544.48849605455,4515.39876075231,4340.11364948719,2698.66898633426,3389.76627950287,-31.3431524937541,-32.0785127923655,-36.5413911976975,-8.86216483408407,4464.09022457929,1881.1346854456,4619.34876520952,4665.29554098389,5891.00723818994,5229.86663330569,3978.54106338072,4424.84298605728,-3.93538176019774,-20.6562937616709,-8.95871505387731,-10.4987842872379,325.718047254625,101.933815099993,689.03886931555,479.173384243618,1277.73192727482,-10.4218075953477,-31.5542215551268,-24.2663874822565,-21.2751144715667,-24.2631795476909,-11.1353750081953,-10.8165725004728,413.436095474667,175.346280706686,3746.47810656824,4086.49895166456,5881.41650175995,7948.20071595072,8754.35407952616,8957.51491661852
,20,19045.7210465078,18364.6850242026,20146.1192061045,1967.81268783098,1918.21787402553,2840.92813245592,3365.85763607481,2287.97048863908,3575.60310857912,5939.1012671249,5194.08720107489,4788.32093626812,13913.2365491019,15126.8385178751,15000.5338517315,3558.66016021901,616.076229032322,4822.75983722913,5563.09543074096,880.429999520233,6822.31225125208,5399.00280474562,6676.94712027331,5065.47011579343,6224.26831250424,5541.9901205621,4034.32990682082,3565.23756294028,1941.20884526431,4187.91077415361,1580.7495993717,1294.44848340514,2949.86477907118,215.865726562774,40.7244788975495,77.5079425889789,1038.40147756655,1155.71387249718,1093.21210398918,2175.90968260853,1310.70592945961,4965.50732953529,3696.872421899,5759.78952200834,6387.83106977934,8559.27567652245,5059.74885816353,4169.6559967024,10.5068148841647,11.7585117821191,4.16406120859938,-6.93992630177399,4593.56248794779,5739.33445550253,5168.51092620528,5829.4870866853,7348.51014626467,6328.15629231217,4727.17186566043,5698.4886002456,-42.0875415719465,-35.2617245469855,-29.9579660983636,-12.8758470859011,7247.63147255324,3578.95827940245,7223.58519675932,7122.41123562815,8076.78787310176,7461.95599114486,6169.04727908713,6196.40076188698,-7.57682965558433,-24.0193353538298,-13.4030358355212,-9.65541946689336,694.861683832377,280.202563558125,1395.12624753443,972.873374979494,2461.27607709869,36.0103108874773,-24.1552958837037,4.44983708906329,-22.2450132347203,-17.4339649213334,-16.1242993917249,-18.6533786883638,862.83162812194,399.819034684278,6119.66542275237,6646.56258230389,8405.49517446317,9359.6557043015,10921.2494959543,10882.4924587431
,21,19373.4707413837,18781.2897863246,20408.8889501992,3286.34027546075,2828.98222938201,4482.63642520165,5156.56600314157,3744.80740291673,5455.38216608032,7643.10478155807,7382.59629491659,7039.59763591612,15714.6674446318,16850.4173150774,16740.1196482502,5469.23325295554,1389.45827704057,6825.15295126885,7709.10481965296,1496.08416263103,8734.72285993283,6452.6924817869,8497.17587914795,6472.51514103418,9205.9403949871,8641.08632930393,6427.32140897029,5204.56975820672,2598.25348284273,5779.17902028249,2748.7730444962,2299.1210440424,4826.92258903659,452.633294522104,102.830180484601,183.217836851938,1811.81982853903,2023.89071123859,1895.14334203539,3667.36441028607,2227.26197059808,7434.76160727356,5814.30412695805,7720.08126977592,8816.25381160911,10237.235540352,5983.25148687392,4754.53776683878,45.6490994779288,34.2200936319296,52.3668778634601,-6.71947625138273,5734.27193548651,8272.66625972283,7585.38385271238,7780.15810036716,9513.81491807726,7446.8949384941,7155.06091369786,7870.66256204207,-35.9851097228102,-38.1508847684945,-30.7824563177501,-7.90217360213956,9351.87581068334,5895.65914388415,9466.71438590701,9211.33122691028,9761.62090948706,9135.47192768902,7573.36961034968,7576.5438104174,-3.94122038318346,-22.7947082285027,-9.13867786102401,-16.3566466574002,1294.18744223083,561.53961789506,2473.36983849062,1765.56531834974,4187.71862892774,99.062390256302,-1.20802070510763,38.258355824717,-23.8754487743745,-10.5113000431611,-12.1725153461794,-12.5670776412489,1636.30710052228,759.369852829022,8283.20360199167,8884.16598450153,10376.1875582695,10234.8224893822,12470.9217123446,12193.7164357029
,22,19619.8009237163,19077.0593441314,20586.4068104466,5138.08121168162,3843.66153086078,6557.51707409715,7164.54563231485,5679.03950336969,7496.92390782533,9151.27385425115,9453.87479896456,9258.51783006014,16887.8119008168,17961.1650289328,17850.2883715562,7689.62256077373,2327.42749377514,8719.03777000369,9660.38997872871,2478.60416145591,10389.5736116814,7355.32737253558,10066.9877582636,7744.22050479821,12166.062537509,11900.2975145976,9727.32825036262,6851.25347108563,3321.62410927079,7120.97689525755,4552.19588576486,3916.26618035637,7604.00386398242,873.009654943469,239.32460105371,370.769133709938,3146.74923363468,3522.32301327281,3274.54201195988,5871.13508815149,3428.91753764426,9790.68298135539,8427.59506205514,9442.30476922994,11011.8358722055,11398.3518215434,6626.43930655261,5270.38662689786,121.281425433012,101.66972552192,125.272635263525,-10.9978771889619,6594.72723042919,10570.0721712983,9878.2872594106,9452.94885215151,11306.3599995474,8337.34837625418,9583.40738678374,9842.81865026596,-38.5747783459892,-24.3881086474639,-34.5324437971067,-10.3014405248405,10978.1498887775,9039.53064723223,11213.1659713101,10802.1392129319,10854.9847062883,10057.7985446296,8709.54686123889,8487.19354003274,-6.20720131213693,-25.1999405918896,-13.6002900561198,-13.8944318354952,2346.21161936598,1075.75122572503,4255.30186917772,3123.30220581606,6672.29106764153,223.36190796119,46.0965864993013,110.843827518759,-21.3913593430989,-13.9371366871965,-13.1780424120361,-8.95479235938728,3001.5986326873,1421.29653291099,10182.1161729758,10788.6356766145,11652.8942707642,10690.808574809,13389.9079368618,12935.9652728802
,23,19809.1145900975,19309.3201228645,20745.0785970384,7423.58136087659,4821.06620659685,8378.70269119286,8748.86791814841,7823.18072493698,9089.50307329681,10276.0253177598,11099.4101648809,11137.7235930294,17684.6015998668,18719.1304659613,18615.3475116886,9636.62040569905,3436.28200398621,10212.8737230668,11134.613999587,4163.68621634386,11518.3928821609,7978.7483059866,11197.1358796202,8696.4149984186,14706.7797149809,14894.6238363659,12823.653115965,8204.80401318867,4019.53553123097,8142.95284177636,7335.69029765631,6539.31166099958,10332.143631874,1747.76078925453,521.103496214725,762.753594253404,5499.19275641102,6171.36919709419,5777.57412168133,8668.78597379536,5032.65309942627,11535.6735125388,10731.5995156877,10625.4226268056,12621.5141236501,12213.6940072019,7135.03536915885,5655.74285324446,283.11027504513,246.456463387703,293.950787289851,-9.12042321497211,6935.36075248714,12176.8717604588,11658.206008013,10551.4274502581,12426.2131500891,8840.92149435924,11607.1684105663,11269.9140516452,-27.748359156757,-13.8277461419739,-14.3156329264593,-9.71783533672533,11774.8631036241,11815.6990272094,12350.7548100505,11854.1117650585,11543.7663898216,10425.1052540158,9418.50121451422,9066.2862373819,-11.356528378813,-19.2224400975992,-12.4097820138404,-8.76076986413318,4286.06428892989,2114.86418392579,7191.81921817336,5475.13383946706,9892.33683259606,488.788985653722,156.567813624735,259.597326320441,-20.4718999917131,-11.9114777844079,-8.26176346953525,-8.60723131645227,5406.17191589017,2716.55480188404,11511.9759063323,12060.9779257021,12344.5215102718,10966.0187748533,13953.1925899645,13398.1975027487
,24,19958.474183785,19477.9936007768,20861.9027065898,9214.42135888985,5420.81076482375,9680.3944814659,9628.20163151495,9276.25916203472,9959.25849533445,10986.2839335059,12236.7540695953,12469.0328767586,18192.3115074955,19201.1163078951,19112.9051357014,11065.4539640202,4058.58306801468,11160.2575604011,12068.8800296234,6238.89783369598,12212.2117939475,8344.32609446425,11905.3116014778,9338.0320216904,16558.1496172508,17168.402960533,15374.0209521139,9129.55316543707,4517.61426018576,8750.86889515271,9866.76443545694,9183.8114524533,12738.3999267992,3157.89859972757,1008.67478000069,1416.74152565462,8371.24275914555,9260.73422354694,8866.66331500442,10793.0402670281,5732.75868018251,12363.2965281538,12440.6138506774,11286.1607429151,13533.0490669979,12739.0914373129,7501.5613358806,5943.94587241211,551.039136550913,462.328236741569,541.590562728221,-2.77085228571923,6929.72377061158,12937.9130722209,12722.8388121725,11143.351055231,12976.9160809353,9022.80212101315,12957.4038435895,12093.7545359289,-10.8465183580574,11.4278472515807,9.45683160381304,-6.89408359492882,11915.0585130061,13757.8013604213,12992.6903039641,12461.5592333539,11973.0686934012,10487.4988002638,9803.14257048765,9419.82469800929,-6.70269120931789,-21.8199756432841,-13.5657972407971,-12.2709695602425,6803.3203587839,3754.59028629963,10301.6848100281,8478.9084527174,12621.0892748693,921.760008507182,344.585899738143,521.23458319556,-20.3054870912238,-7.28739175028022,-2.7652973304148,-9.06464660242091,8552.31814378044,4743.60688036713,12283.3593124791,12736.0192927148,12663.3268062413,11143.0610763555,14283.3586955006,13675.8500569036
,25,20055.8297590642,19597.0983446489,20931.0474674485,10408.2964318025,5699.26770555211,10379.0992892104,9912.24164350246,10022.6679880309,10241.9745706908,11398.5244301462,12870.0553448671,13244.8876034395,18505.0008125758,19498.5357282054,19417.0407254387,11913.5991604994,4281.67264190335,11643.6592657822,12579.3136962841,8319.61358430705,12556.7849466216,8534.3385323987,12295.1033797362,9721.54701661435,17683.9924461887,18621.2190523621,17088.0642856997,9647.45877164998,4830.51281246594,9045.11269459645,12021.233496301,11558.8531018654,14447.455845223,5122.3084755891,1740.73179048402,2421.82374027126,11161.4281749472,12184.1981554553,11877.7745133194,12034.1992864663,6175.67558390446,12473.0823228732,13409.8123764447,11555.0458623137,13925.8554343559,13040.4172261654,7768.40715447036,6128.13727129967,935.657659301086,793.403875897729,952.377672340432,-4.64046509458967,6774.75744572872,13122.3963828355,13203.4319181279,11405.8426591491,13193.9449599022,9027.40991033678,13660.9601377994,12444.4470447945,11.9136381586286,52.522951334402,56.3286180537634,-3.85964003919617,11748.0984979991,14565.9457056089,13322.8930453366,12793.6703091146,12230.832272126,10496.7814797218,10002.7372784947,9618.19168850495,-3.89013167234316,-18.4984885747645,-13.2767928498261,-6.93299335521715,9189.17711011184,6007.54522082169,13135.0111558671,11402.4034124168,14727.6937035153,1653.06502044671,663.909063935183,956.033054077009,-13.7153504304115,-9.68725664975773,-11.4170153447249,-13.0754592835983,11410.9868078325,7664.7233892771,12643.1236773873,13032.8730277053,12772.1055497088,11214.9289706203,14479.8885383694,13827.7069001392
,26,20113.3466395878,19687.3992185592,20962.5753280166,11164.9750603621,5865.09515474358,10787.368483744,10008.8988068866,10397.1294889033,10339.5466967424,11630.9902865054,13243.6023568094,13715.2561807615,18704.9800177599,19692.0166982114,19615.0528776493,12406.9874467927,4477.50340576323,11896.8793216375,12928.4217044534,10255.495669556,12800.119773766,8627.21080468587,12527.8412515657,9971.82021245064,18414.3134776016,19565.8336516182,18217.5535769749,9992.58808985406,5084.97436896774,9242.8494434297,13637.394714675,13453.0817150289,15593.1072490087,8084.98181020943,3080.14246474855,4134.30614565323,13617.9690031698,14657.6880037035,14522.8684162534,12613.9099625431,6352.25947114951,12411.2962971904,13975.9711001821,11729.3452461206,14134.8030505596,13252.5745613086,7955.16642979306,6262.45915618981,1675.15751611834,1393.92148879032,1692.7186532779,-3.88255544357253,6701.58142390628,13164.9582157657,13465.9792336584,11585.4160921251,13337.4103330277,8992.41674664005,14062.2088039606,12649.3032696917,65.0285072960078,135.495462072451,149.753962507853,-2.14182401129256,11625.7070875033,14731.4687440935,13558.9222604478,13027.6777217577,12410.1760655538,10552.7706393008,10124.4659280652,9747.47638692107,-11.3546795792745,-2.89520982086742,-10.945565551353,-7.50948908101327,11208.2013828513,9050.55552513748,15413.2752014551,14007.7889566367,16188.6581665747,2961.45651166974,1249.54122633372,1771.84900321393,16.8814576682435,-7.25881389541428,-6.30779561141117,-8.48943599315498,13533.0999939332,10584.6014969606,12884.8062341496,13209.0036784659,12859.1768987334,11225.7182308761,14601.163267409,13904.6504618657
,27,20195.8551945527,19768.8527075935,20990.1453942019,11723.541194773,6076.39620185865,11127.4411515999,10190.9318913677,10718.7384163736,10528.6965027074,11802.4903437457,13490.8403406727,14031.0237030188,18869.6409913848,19851.4376523237,19774.3501980271,12768.2654766193,4620.90725350588,12099.8509449861,13200.8989960744,11883.2460247719,12983.1893472898,8683.71011033957,12716.5402762246,10156.8755616299,18904.4641920036,20224.7521278898,19012.5501884215,10273.0881522849,5314.28140617715,9416.49761422663,14795.6379097645,14838.8633632047,16371.0293782925,10935.1752524685,5213.37502348578,6638.11039054013,15551.7346704305,16552.7977643248,16594.8565882894,12946.8330097298,6489.18005404826,12483.1829835202,14369.5177094257,11859.7235157282,14331.292080235,13418.8990858007,8128.74077692538,6382.18775044068,2927.79903662127,2412.55109644029,2936.99278144432,-2.13685718468514,6700.95535736643,13307.4014713748,13706.5637863309,11745.5550964351,13490.2803279952,8971.43379254998,14384.7411725883,12849.6441893143,161.491828715409,276.773125965005,305.29902730967,-2.56982088270888,11690.6664712843,14775.7224882856,13780.2561550307,13241.2629628253,12547.3551390128,10630.218460886,10221.9675848069,9848.51858625854,1.12992771854897,12.2569213629968,-4.79664545588366,-4.67763844882211,12632.0810765545,11779.6648231896,17094.6885495783,16045.2466546668,17204.3366823157,5089.86086070257,2284.08697743955,3157.20132671101,18.8038075141476,-5.21794713189138,2.30075796175788,-9.71787188848703,14729.9852474626,13120.7153158298,13089.2275805026,13383.0083685056,12948.1932204249,11206.110720582,14693.8519863732,13948.9910250114
,28,20225.9565499606,19827.3426400681,21014.6801106909,12136.2287202824,6246.58975015159,11396.8561711845,10325.8019509187,10973.1119175744,10657.0830952172,11891.1662151235,13634.8537592093,14235.6596833664,18965.2673079922,19957.4681613662,19880.1247013408,12995.2792035392,4686.19433333073,12213.5414010878,13388.7241319638,13082.8903338582,13115.3629896927,8672.95964001046,12829.8288936639,10269.2561316267,19245.8540544995,20663.2237085634,19522.093261208,10460.3359652823,5491.58012378393,9508.38937579096,15516.6292117384,15721.3567674586,16849.7399087432,13325.3804695561,8319.11026330532,9509.48293686827,16866.3206141184,17803.3654889635,17980.6299304927,13190.5811373932,6613.78741105038,12573.3910541493,14640.430067701,11929.5141868082,14442.1695625608,13512.3103739575,8243.97352527576,6474.5847445928,4881.80288194943,4078.06057598048,4932.2640386024,0.655276511058219,6677.01131038656,13412.065578319,13864.5690707257,11825.1329238994,13562.6623948897,8902.88823655928,14594.7933658316,12983.0483576881,325.13991219982,526.068472932172,567.705150350802,-2.32752591403914,11745.644128688,14839.3491301948,13900.1369923502,13356.8283999742,12615.4569160218,10658.5669221281,10233.1128953776,9912.35114084979,4.7162892598808,48.4130191650174,-1.64047466785814,-0.603136844121764,13414.9961727371,13845.1067144006,18165.1897117802,17418.4626584282,17833.6186665305,8213.22022803524,4042.46767504102,5381.6532358688,22.5652277400595,0.406628423134862,3.06224337524964,-3.54508709031961,15148.2805714009,14750.7387270019,13223.0185496346,13498.4974765158,12983.6673098578,11161.8115744715,14724.7001904432,13963.8235512271
,29,20270.8145662259,19870.9306487127,21035.9824814758,12438.3828536879,6375.20525363894,11598.0530938246,10428.0913983252,11161.7518436375,10778.772502662,11952.9172465622,13764.4249874113,14359.1257372188,19059.6489051076,20045.8389132259,19960.4886715555,13164.3002197843,4684.64717262258,12291.9678565596,13657.8327676532,13973.5827906069,13198.936365247,8650.7373373688,12920.7333611472,10367.1481345174,19486.4928931517,20978.3018211402,19857.232521233,10594.9363198017,5615.00020874282,9560.22130262743,15969.7049238775,16272.1453477032,17164.014933597,15023.0583279615,11482.8605045082,12083.7709607487,17744.7827714747,18624.9186300784,18901.6151636874,13407.524049032,6737.33005394765,12648.8183416081,14815.3672137799,11927.2991498817,14495.5003628321,13572.3210487417,8323.6552067986,6537.88787515166,7754.01542567438,6463.76112540925,7896.38839421163,9.10763458178189,6648.74935564036,13495.3901401543,13981.1516355897,11884.1324773169,13610.2238907852,8824.66850243824,14756.190643602,13079.5036252323,602.861037424115,938.049499596972,1003.20039515185,9.3808420981386,11809.9269500741,14945.0885344506,13985.6739927752,13427.2403972185,12653.6906993428,10675.0619431218,10227.5666145783,9955.50520524095,9.07160411393761,105.706847174464,3.12732134521229,0.501399163929818,13847.2546316526,15110.2256630485,18844.0791566188,18301.8748125975,18224.5543371175,11246.3206062199,6688.75502098692,8445.38570792514,16.8386855324607,9.35120157610982,12.4043367718104,5.73926337900502,15291.9675721764,15568.4285266917,13300.1106478706,13565.4607769954,12993.9739105859,11106.3481802679,14740.389506037,13969.2551842155
,30,20281.2925989151,19903.1269620701,21050.4537176171,12668.6163194895,6462.32881531779,11758.3263522461,10513.6377961975,11311.5625007633,10861.0276211115,11985.4215916436,13839.0690617315,14442.1277138549,19115.3143132077,20105.5536797844,20016.7757425649,13271.4743162823,4643.73904221811,12341.5076315581,13891.5196766449,14638.3198829719,13268.6187055791,8615.99621542676,12958.0581592126,10439.698997221,19685.3114048766,21210.1611857579,20093.2598010556,10688.6464364816,5723.34674309654,9582.6966941134,16257.5338435598,16612.1808270999,17360.9907432606,16077.7815201272,14406.1437551132,14103.0103364806,18337.936944037,19177.4946165932,19527.1420000009,13563.6473356641,6845.10707698499,12704.6748476736,14925.5251357872,11917.0269595331,14517.516878133,13606.270554594,8389.34835636025,6583.44344607028,10721.2344965792,9700.63230588232,11004.686874812,13.1188594410787,6607.19784457001,13563.6373830083,14049.7464253084,11911.7630788824,13633.7221718597,8712.28610172584,14865.2422073446,13141.395286842,1110.83688909184,1694.20795974477,1805.63804787446,20.572584184747,11862.815469228,15043.7336961937,14033.5062044251,13463.1943471227,12666.6871226578,10689.5763829433,10201.7477644662,9983.007612091,16.8555369676142,228.007407117865,15.392043788006,10.6922482437976,14131.7605872116,15793.7459772774,19272.7878816917,18853.6876927465,18477.9698629956,13757.0702836281,10303.0472985243,11360.3425512079,29.5325703277213,36.4636589734046,24.3774490960659,5.84362903839155,15402.7714128589,15949.9993819824,13361.1497991672,13615.8013918984,12990.8901317608,11047.0934499139,14746.335498147,13962.3656581304
,31,20307.7421101657,19948.4107639924,21062.5663659265,12836.6664211893,6542.02156499479,11869.4398701634,10595.3881405774,11431.4401413002,10937.3977246867,12002.0040020443,13897.9207073324,14488.7862668932,19161.4313071938,20150.2143791086,20058.5247856698,13357.2521995282,4568.77930399659,12359.885050142,14098.9859423115,15134.3339031475,13310.4640507552,8562.52197148016,13001.8215648837,10498.0583707118,19817.272126012,21386.0929353638,20270.3804475247,10759.5198810981,5798.92975134016,9596.81451498276,16456.7682894207,16832.4736487566,17487.6155884334,16731.7991128889,16645.0125975296,15463.1289043346,18751.0664515552,19568.147500563,19960.8872311853,13699.4601432459,6923.15184348878,12763.1474272957,15000.4295128517,11884.9733849569,14533.9190153484,13620.223376899,8449.18425539242,6635.02468983679,13497.7755570657,12709.3915285651,13936.5242662853,28.2272268197139,6561.10018965072,13614.4254215408,14104.2889725218,11920.5673117238,13655.3989840988,8601.40096480948,14958.6452317682,13202.8435717735,1999.59237921664,3003.55118317309,3182.32548651168,35.0595826670742,11904.5369556983,15131.8351247613,14064.3512519236,13491.7131551901,12670.7179101711,10700.8798054433,10158.5808758474,10009.2609458055,20.4414460446969,418.294378441582,22.0639043606989,24.4077519621633,14377.1696943531,16182.6323127592,19539.6092347257,19208.1585738761,18630.8323834342,15250.4405989151,13515.422045062,13687.3884636678,43.8705762605359,59.0325395646332,46.098651676637,30.5729192624385,15565.5376154588,16199.4308655909,13410.5274832374,13629.7346365296,12990.1130436608,10967.8276656631,14747.1477486563,13931.7427092698
,32,20320.7882037203,19988.8306978497,21068.5068428049,12946.5203797951,6597.92989484692,11952.3442793505,10653.1153439169,11531.5652717167,10971.6206525711,11996.2763780505,13908.879786353,14529.6273961706,19169.7773953354,20166.8243659819,20082.2669668469,13397.709338246,4470.23574758458,12357.4218814325,14125.1480417219,15462.548986076,13339.9112073595,8485.04447295472,12997.7156347323,10530.4982210244,19913.3699680829,21504.1549456223,20396.9802882238,10804.1320507202,5862.61352773986,9587.63378864807,16568.5682725499,16945.6884179732,17561.9179739555,17133.4172766144,18046.6867942071,16252.7020353137,19033.4009371776,19825.305872959,20244.0652621804,13776.4990159906,6968.33271622093,12784.3298120246,15023.901859219,11824.5509488033,14522.6778783066,13618.2248682859,8494.58376483865,6690.59744245071,15624.4404964692,15233.1162142991,16216.9572835529,46.8673149005299,6493.54267249173,13663.5460730791,14118.6474136757,11910.8994265282,13634.8056274323,8468.47707811767,15013.9935142085,13241.0468103618,3434.4136734149,5038.44766567193,5309.32200114009,55.8905838084565,11914.7459349225,15188.9278558622,14065.4003400397,13504.6955512414,12670.8831824071,10684.2765770475,10108.0886414624,10010.2927594547,37.2399066805401,757.790439228186,49.0003675861435,40.3384429032621,14563.3404608324,16420.3491143278,19685.0775064311,19386.7134484932,18712.0957474702,15745.2364115391,15898.1985236949,14999.0514645976,59.614530792679,117.176557227549,70.8429823545421,46.0902899534958,15700.7985922317,16396.115256028,13433.9336521537,13639.6243421466,12975.891214576,10882.1972976059,14719.145810931,13889.3153974863
,33,20324.5892993158,20026.3993715241,21075.8011422049,13011.4953510627,6624.2930749441,12004.5105704274,10677.9687140413,11573.7449969488,10987.2146428159,11988.3752316711,13885.7963249381,14511.8438917682,19174.3105602581,20179.9741627438,20084.1279009613,13421.8319874376,4347.5726470532,12330.3499700724,14136.1291861285,15688.8076669671,13336.7053767594,8395.9367716054,13002.8507245308,10544.1633871547,19974.6405635053,21589.9239263086,20481.9997431873,10828.9715661967,5896.67534815104,9566.98511367451,16622.9839766636,17006.4204177401,17598.8745732691,17389.0757980672,18805.6931516751,16663.6512983328,19233.9907835937,20009.9609462462,20434.9143130345,13826.5543255087,6978.76489450382,12802.4319193642,15026.3214325014,11744.8316497701,14487.9788364155,13596.6450736051,8523.94574668197,6718.67204099173,17060.7587593902,17048.6876250165,17761.939397895,82.8589652508754,6409.27050517923,13677.6944533354,14118.1165999087,11890.2356844952,13603.342268443,8333.78895520063,15034.0179410929,13249.3609433906,5640.19906810255,8024.80302067453,8338.51248284837,87.4995995854524,11910.6450996551,15209.3238251373,14058.2496586913,13499.3679836024,12649.399735922,10657.3459171104,10025.9813815995,10003.7911241529,73.8580243451888,1332.01442842145,103.441044024637,74.2304875768141,14711.2814475451,16575.2206510682,19749.870682818,19477.2701150546,18741.9553475892,15719.1901097447,17184.203552256,15469.9986363764,85.2044235957364,203.655291037628,143.320159668589,93.7973767039684,15791.25316423,16547.9804537212,13423.279324053,13623.4930177751,12933.8637392433,10781.1534984721,14683.0698983476,13848.2609373016
,34,20337.8765555222,20036.3491067032,21083.2148660895,13066.125739719,6631.49262081265,12036.1443419437,10708.3277537893,11625.4969551195,11012.5884418801,11970.0314693925,13867.2690909235,14474.951274928,19170.034268358,20188.4878640319,20080.1001379131,13432.9843491164,4215.16354666623,12321.6723929068,14131.0083259167,15860.744996351,13325.9769000921,8287.65013152604,12969.9811909253,10549.7128445009,20026.9081881858,21654.4670547886,20550.4074298807,10850.7472055107,5935.30330024413,9541.47400342746,16663.0194341956,17029.9287588517,17632.7110270661,17599.3056950168,19219.5331964669,16905.65562113,19384.0986505752,20127.9706058418,20567.947250573,13864.2092545343,6983.44694568628,12806.8330348066,15004.8727888185,11651.4198924905,14439.7639828832,13569.4506730154,8542.05651217248,6735.36768478945,17999.5718820099,18286.8737979514,18805.5131645154,135.567575496915,6321.80153439082,13697.0781639114,14109.9537072912,11868.9004753503,13568.5756115184,8189.46666847612,15040.934261778,13255.2052383702,8668.60208420795,11080.8032888388,11406.2864516192,134.257387226893,11904.9702945226,15207.3935122889,14037.992202394,13495.0639194734,12633.0469038012,10629.1556701284,9941.67328611005,9992.7124548256,121.087758845041,2325.93164180354,176.474556976529,127.409159588477,14853.1409787052,16715.8932221991,19787.3356649026,19499.6174665178,18742.3104463145,15625.3924835523,17719.4899728281,15570.2212024089,139.339351620524,376.615870491742,242.863661858959,165.304554342233,15849.0510191713,16659.2502198786,13422.1945204198,13608.2701754068,12886.8283701649,10689.2186405229,14633.4877985531,13801.583532396
,35,20337.6096053144,20037.1249116063,21081.9189189633,13104.961624217,6628.29896467833,12041.2620874248,10732.5850378881,11635.0530831574,11017.6186516463,11942.1591366871,13819.0195944223,14428.5852517458,19165.1381434331,20201.1071996313,20070.5408854961,13441.9052806617,4064.74315858506,12303.0036561406,14119.4124600748,15986.5960019133,13310.9249729403,8177.02170258874,12943.8250533314,10547.5716567495,20059.8083629032,21697.1170231197,20597.5315472877,10854.3987316326,5965.29314762036,9506.76572098815,16683.7382391938,17034.2216524256,17618.9707018137,17757.7231092357,19443.7561627417,17062.503364294,19492.3326131166,20220.7961147706,20671.4791347947,13902.9012768089,6955.84115188518,12798.7302907597,14980.9714801167,11563.2749345038,14385.1495436709,13528.7006303644,8572.68085821141,6718.36462225815,18641.2674334949,19098.4482903652,19486.4355593148,234.579401214829,6227.87796337902,13684.2340572652,14103.4177928439,11819.7137203236,13529.1166299407,8041.37958514706,15049.243417371,13246.0866814447,11563.5622809421,13890.5682448493,14187.6180646422,233.274797674855,11886.4037666976,15206.2762077068,14009.7283735477,13474.5374275209,12584.9632011767,10597.6409128515,9840.57438528866,9970.38531119853,216.686763783578,4032.4488843477,321.890775231853,225.267779647779,14979.0897392524,16838.923099112,19800.8210800349,19489.4814382721,18735.1810555548,15586.5010684834,17883.2791912826,15570.6599597023,234.141258886448,665.598469351999,425.96330872398,279.760041926319,15894.3338759328,16730.9834696037,13407.2595602391,13584.80099156,12826.0345994099,10584.9972505357,14575.7576819538,13736.2826396593
,36,20343.8352801579,20058.9000021282,21084.3775385633,13128.8403135622,6623.51963054345,12056.7906600022,10748.0224234273,11645.6488881478,11032.6664797189,11890.9855084765,13807.3165906682,14394.7901905396,19156.044291267,20206.4303395091,20072.0209320434,13437.7039638155,3913.13800805881,12280.7134761747,14100.1777417887,16063.2820692687,13291.3734427545,8058.80054113826,12909.4871940505,10544.5520785485,20070.3798780688,21730.0975426402,20635.0785393592,10861.5691701822,5989.67576515913,9471.45856568211,16702.6282708781,17025.2886945389,17606.7989110037,17895.5427328197,19584.2334149466,17179.7019598329,19591.905742263,20277.8817651877,20736.2860808375,13931.4045859934,6933.99307062301,12772.8848052224,14952.1778279661,11475.0926569471,14341.6473430398,13473.6507091195,8582.57296494475,6721.3951405211,19072.5942178208,19651.9174024183,19952.7850110382,395.676988459641,6117.51088798479,13804.0033108984,14093.6454092993,11771.5657574732,13495.004189737,7901.6095824469,15048.7162950393,13239.4056513088,14106.8291335491,16072.78807616,16347.7026269779,394.893341674587,11863.1208070441,15198.7750780234,13983.8856543147,13449.418677555,12548.1108019567,10561.9030293611,9740.56633975152,9936.68452044676,374.697236905496,6444.51373336745,584.776090029349,389.550561734639,15099.5457595025,16951.9151761861,19787.3263992546,19463.8601319587,18730.3223406556,15610.2769636148,17972.1373891405,15601.744347607,400.645129172597,1155.90046549805,758.072341124484,501.857892597752,15923.9281456842,16771.5617997313,13404.6305601321,13567.8960255332,12774.0574949781,10474.1336455343,14513.2693038804,13660.6083153584
,37,20327.2913544225,20047.4524710614,21072.9858432991,13123.7318882346,6594.75536474496,12045.1833680562,10719.8886056942,11606.8872447581,11005.8018340275,11821.5494959998,13757.9079681295,14349.0755491191,19145.7330813009,20188.7836019856,20052.7872041826,13414.3506398906,3743.61118818071,12217.1139822675,14052.8467856096,16096.8005608824,13253.1443121675,7945.53516741321,12864.7600383948,10531.6552059925,20067.8225956301,21743.5314599617,20646.6512287464,10840.1563574372,5994.37367855566,9420.46886392393,16677.7664032393,16998.8136736951,17560.0215646559,17999.2199176529,19640.0234754453,17244.2922525883,19644.2389303378,20326.3315993556,20792.6375757811,13926.5103823205,6871.17555095974,12730.5660295173,14903.6513500066,11365.582029271,14286.7812272785,13396.0886986423,8585.20223008032,6705.27841219943,19351.1944961545,20014.4376402711,20238.9413840826,687.790438984576,5980.6357007556,13759.316407554,14056.7578717327,11715.8416740431,13421.798243268,7752.09349173182,15033.3062637216,13196.2560708353,15925.8792293118,17511.0842442452,17770.0643646367,668.403488986114,11818.8819601602,15178.888338181,13939.0878535778,13386.3075223232,12481.8854517334,10501.5589340545,9622.02347452877,9886.74461951602,658.596020902643,9524.88891326734,1046.38287896081,680.87517072128,15171.0346400926,17027.6681723621,19743.0574112169,19431.3856285379,18694.1450748778,15610.8191491763,18002.7475515703,15600.4608360082,684.368617847013,2027.97956517858,1336.51268218886,883.381304871882,15945.8377536332,16771.0236643938,13361.3303497128,13531.7655164324,12709.3605762878,10341.6711998727,14446.4062824503,13571.8201995261
,38,20332.2317763792,20049.7025458171,21068.642956696,13127.6718052648,6575.78588087605,12040.7809596914,10686.6751800163,11584.1330685193,10984.1504239306,11766.1947166957,13737.675462799,14308.4365433054,19123.2801555013,20169.5325219093,20040.3412097816,13404.4150708319,3586.14973901102,12178.6879123966,14017.964042743,16134.4210368701,13222.7706924699,7822.03677105504,12827.0022061412,10513.0078603868,20083.5338547121,21758.3001406855,20667.9936205714,10832.2006370374,6016.37191074178,9377.41413370762,16667.1933862345,16988.9781175382,17551.4618596074,18104.1821209649,19708.4090825658,17309.6282488723,19692.8031257164,20363.4406759489,20834.3808100939,13923.9953303783,6839.60756891745,12713.2301181696,14871.1495227694,11269.843910925,14247.850889567,13343.7489429101,8583.21055778801,6703.54243057712,19557.4205414646,20299.6302170963,20469.2097017634,1166.59875007762,5868.81859726344,13876.0564752459,14022.4556279031,11673.4040162582,13372.7796857337,7601.97023643263,15009.9524244699,13168.1450091665,17196.6318703135,18475.9816863046,18737.438265416,1135.40759439252,11782.2410462771,15164.5196979947,13911.2110746017,13336.1563042204,12437.2755978952,10453.0110362453,9500.94695236876,9843.4438710212,1118.95771138192,12428.0381879142,1845.47542094124,1168.91490102139,15258.9609740654,17111.1715682106,19725.2634346766,19416.9812624375,18680.2428751547,15685.434450523,18082.0648043113,15664.2246346128,1157.12912204364,3361.98602408251,2295.5914939126,1527.52637662546,15971.0080075481,16791.034168894,13340.6756263078,13509.3024412813,12668.1766005309,10216.0804700696,14386.0550914165,13512.8844532399
,39,20325.6289667443,20025.475005292,21058.3207081442,13123.453227713,6566.82876069916,12014.3227203759,10654.1153665052,11576.6368178584,10949.1949275763,11731.6692515841,13682.1471460203,14266.4129921931,19105.0745051153,20158.7386727992,20015.0075105886,13384.9012238281,3417.23263979644,12139.7705852464,13971.9907630394,16156.1882098234,13191.030401504,7692.77178576318,12764.0780095164,10500.53875519,20090.4532080096,21770.998100235,20679.2106892003,10816.9257968038,6031.12298730117,9333.02474658906,16646.3486402096,16968.588750105,17528.518548742,18197.3446958359,19773.4343589292,17385.7122518988,19718.8729383823,20384.1475326646,20868.5144989427,13925.2842929931,6790.93046830673,12696.2585899087,14829.8372261049,11165.2961901768,14196.5339703946,13294.2163378958,8578.08099532858,6674.8541842821,19716.6300518658,20502.1131189043,20654.3551184599,2044.0024844044,5750.91679292361,13856.1577433809,13988.4854966683,11624.3081155321,13316.845743886,7440.07319294081,15000.0095312845,13158.8289260975,18028.1548027359,19106.2510605132,19375.6981401966,1943.38376864338,11735.7901871922,15151.9294345154,13865.9541101985,13288.4011733376,12389.5255125731,10402.3881744038,9387.24102127247,9798.24354129031,1927.89051134585,14814.8543013174,3274.32307847431,2022.57869886724,15328.1579126224,17183.4971842996,19711.9625584485,19393.5337229777,18645.3535623682,15770.2037513301,18148.1111332748,15737.080773413,1994.15274324806,5672.66337551341,3889.38479770378,2635.12101592198,15997.4086622876,16808.1676531827,13308.5649312146,13466.9789271719,12614.7172902872,10089.96726516,14317.3525582802,13444.4851262582
,40,20333.2129306707,20039.6616143305,21065.7066756212,13130.905255542,6576.04920927953,12015.8956399691,10641.7678491108,11588.3714071358,10936.8130183129,11722.0451459333,13626.2974161708,14226.957299876,19086.8770430472,20166.4218277909,19998.7401380544,13371.0174209676,3263.91685430885,12124.8014035445,13946.8076282443,16169.4780947428,13172.7039292274,7560.61599532588,12706.6740265695,10488.148084455,20102.0199179526,21792.1412925014,20699.0950239177,10820.732293667,6048.40755435258,9306.81624584182,16641.0176128011,16950.6719133354,17514.701996186,18296.9805385869,19870.379076383,17493.4187708752,19774.9345002604,20395.0343346239,20889.6417973729,13950.5797132585,6763.63830841051,12680.4713570576,14795.9288473911,11084.8151905174,14153.4593686684,13250.5393702408,8561.60128550263,6636.65177255849,19864.0237676078,20676.2897755249,20846.5904286891,3397.16252976735,5634.09830010331,13972.971774742,13977.7963346643,11573.3857015203,13295.5470442123,7286.81104506258,14998.175382721,13187.7695358838,18676.9115166068,19604.9394906957,19899.2148606118,3197.73395076606,11699.8562376415,15150.4643206559,13847.2900381377,13268.4111471687,12365.6819553252,10373.6076500957,9305.68623262613,9755.31306473991,3150.96207221861,16803.1534543387,5486.22381512103,3283.82104370845,15411.8084235474,17266.001747375,19710.0090555831,19377.5296756615,18636.1652366187,15910.4039262619,18241.2271028821,15851.1868611682,3284.16823343536,8643.37028561139,6066.47584797654,4252.91249646896,16028.72717663,16835.8143671665,13298.7231482921,13426.5697660764,12565.3154996622,9970.35565789152,14257.2465695237,13382.378149948
