,Temperature,A1,A2,A3,A4,A5,A6,A7,A8,A9,A10,A11,A12,B1,B2,B3,B4,B5,B6,B7,B8,B9,B10,B11,B12,C1,C2,C3,C4,C5,C6,C7,C8,C9,C10,C11,C12,D1,D2,D3,D4,D5,D6,D7,D8,D9,D10,D11,D12,E1,E2,E3,E4,E5,E6,E7,E8,E9,E10,E11,E12,F1,F2,F3,F4,F5,F6,F7,F8,F9,F10,F11,F12,G1,G2,G3,G4,G5,G6,G7,G8,G9,G10,G11,G12,H1,H2,H3,H4,H5,H6,H7,H8,H9,H10,H11,H12
,65,22258.1725696643,22062.3911994861,23056.7219031794,21488.3021192587,20740.3290179054,20731.5417887966,20114.5014517704,20313.9848969076,20314.9002392824,21467.8083091481,20873.37678077,21641.5227597885,22235.7242048825,22804.8899071328,22883.7471476352,22106.8144923255,19511.5971821855,20851.8382076243,22217.1077884163,21746.3715198372,21941.2769192889,22001.7171479,22393.3549159156,18785.1370310719,22805.481310549,24221.5381360701,23237.997409282,21539.9242593692,21210.8652724526,21244.3008743274,22633.2883669118,23315.6266724405,23397.2567220911,23225.0292644311,23657.5436057652,21583.3728004531,22135.951233633,23645.8769158513,23273.5456172149,21088.0760939831,18662.497668275,20852.8700145391,22104.9341995293,21930.1988450558,21680.1027052399,22299.1644380496,23129.0201325897,21642.0497817092,22127.3485248739,22862.9049213248,23056.3286756182,9463.81663116805,20405.6844047033,22199.0220288668,21217.7532369262,20699.4361754692,21471.5333520096,21687.7075575027,21888.085212882,20703.4902257765,21318.7044120171,22152.0903179162,22346.0025437575,8942.32997468726,20063.2204218578,20754.537258754,23087.5546952267,22858.8382696067,22115.0716924003,21752.7751079358,23663.9038132988,22096.2735597147,8615.99411607256,20432.0749008168,11639.2025601289,8606.01746658627,21954.1712240405,22826.1531163974,24689.9633329517,23740.8076309804,23428.004111188,21317.2541818942,22781.1226787573,20782.7419771386,9230.5130071277,15070.8451078061,11132.1907389122,9750.59738573522,20779.7182054131,21246.6046801828,21396.9131149764,22053.7058675853,21537.8568704078,22620.7293125703,22937.374609784,22788.0172362045
,65.5,22256.0292374497,22030.6015485296,23058.1111820301,21506.7692005132,20718.5594965431,20746.2737511035,20184.4928510966,20384.1867302199,20384.8084087219,21467.9797191389,20920.6477129336,21700.9670431806,22189.7170097971,22747.0627893321,22824.0568577532,22132.001970425,19479.1186707987,20928.940453003,22258.2393273595,21857.902086096,21970.7630593322,22002.5139805335,22441.073092718,18844.7424322528,22763.5954104826,24149.9773237422,23182.5623200469,21654.1509723769,21186.5687722056,21268.6954441479,22614.4662030563,23290.9411560196,23350.8926102826,23180.8705974899,23670.5386849974,21598.313124113,22076.4647425817,23573.1937123205,23203.9825794771,21163.7641335081,18667.7867240431,20925.2873205758,22181.5082686213,21980.9249526754,21722.6713306475,22259.6964210128,23184.4807269543,21716.156464037,22038.7555985397,22776.4413287078,22947.8234679301,9372.38121719969,20399.9520005508,22238.4291224851,21386.4053371852,20803.9808846718,21567.7332507092,21687.2012346089,21976.903929702,20795.0236559355,21205.6278172035,22046.3621433053,22262.0535630092,8824.10916304154,20073.5591651549,20819.8641717825,23121.1514521308,22895.0152647665,22152.3642714251,21816.3826308024,23710.5733411534,22139.6459191452,8508.79216219887,20307.6284082707,11516.3048668547,8486.67962836534,21894.9490544172,22797.2727891956,24626.2007986675,23698.8928973278,23387.3417316511,21326.4041807509,22804.7968127899,20824.7350804665,9111.78614980622,14917.9312191953,11008.6726246379,9620.3707310247,20780.0725725904,21262.5892145788,21408.2339756215,22088.4068607925,21555.1981542577,22575.3664508142,22942.3015329983,22810.6665350286
,66,22253.8859052351,21998.811897573,23059.5004608809,21525.2362817677,20696.7899751808,20761.0057134104,20254.4842504227,20454.3885635323,20454.7165781614,21468.1511291297,20967.9186450972,21760.4113265727,22143.7098147117,22689.2356715313,22764.3665678712,22157.1894485244,19446.6401594119,21006.0426983817,22299.3708663027,21969.4326523548,22000.2491993755,22003.310813167,22488.7912695204,18904.3478334337,22721.7095104162,24078.4165114143,23127.1272308118,21768.3776853847,21162.2722719586,21293.0900139684,22595.6440392007,23266.2556395987,23304.5284984741,23136.7119305488,23683.5337642296,21613.2534477729,22016.9782515304,23500.5105087898,23134.4195417393,21239.4521730331,18673.0757798111,20997.7046266125,22258.0823377134,22031.651060295,21765.239956055,22220.2284039761,23239.9413213189,21790.2631463648,21950.1626722054,22689.9777360908,22839.3182602421,9280.94580323134,20394.2195963983,22277.8362161034,21555.0574374441,20908.5255938745,21663.9331494087,21686.694911715,22065.722646522,20886.5570860945,21092.55122239,21940.6339686945,22178.1045822608,8705.88835139581,20083.897908452,20885.1910848109,23154.7482090349,22931.1922599263,22189.65685045,21879.9901536689,23757.2428690081,22183.0182785758,8401.59020832518,20183.1819157247,11393.4071735805,8367.34179014442,21835.726884794,22768.3924619938,24562.4382643832,23656.9781636753,23346.6793521142,21335.5541796076,22828.4709468225,20866.7281837945,8993.05929248475,14765.0173305845,10885.1545103636,9490.14407631417,20780.4269397677,21278.5737489748,21419.5548362666,22123.1078539998,21572.5394381076,22530.0035890581,22947.2284562125,22833.3158338527
,66.5,22251.7425730205,21967.0222466164,23060.8897397316,21543.7033630221,20675.0204538185,20775.7376757173,20324.4756497488,20524.5903968446,20524.6247476009,21468.3225391205,21015.1895772608,21819.8556099648,22097.7026196263,22631.4085537305,22704.6762779892,22182.3769266239,19414.161648025,21083.1449437603,22340.5024052459,22080.9632186136,22029.7353394188,22004.1076458005,22536.5094463228,18963.9532346146,22679.8236103498,24006.8556990864,23071.6921415766,21882.6043983924,21137.9757717116,21317.4845837889,22576.8218753452,23241.5701231779,23258.1643866656,23092.5532636076,23696.5288434618,21628.1937714327,21957.4917604791,23427.8273052591,23064.8565040016,21315.1402125581,18678.3648355792,21070.1219326491,22334.6564068054,22082.3771679147,21807.8085814625,22180.7603869394,23295.4019156835,21864.3698286927,21861.5697458712,22603.5141434738,22730.8130525541,9189.51038926299,20388.4871922458,22317.2433097217,21723.709537703,21013.0703030772,21760.1330481083,21686.1885888212,22154.541363342,20978.0905162535,20979.4746275764,21834.9057940837,22094.1556015125,8587.66753975008,20094.2366517491,20950.5179978394,23188.344965939,22967.369255086,22226.9494294748,21943.5976765355,23803.9123968628,22226.3906380064,8294.38825445148,20058.7354231787,11270.5094803063,8248.00395192349,21776.5047151707,22739.5121347919,24498.675730099,23615.0634300227,23306.0169725774,21344.7041784643,22852.145080855,20908.7212871224,8874.33243516327,14612.1034419736,10761.6363960893,9359.91742160365,20780.781306945,21294.5582833708,21430.8756969117,22157.808847207,21589.8807219575,22484.640727302,22952.1553794268,22855.9651326769
,67,22249.5992408059,21935.2325956599,23062.2790185823,21562.1704442766,20653.2509324562,20790.4696380242,20394.4670490749,20594.792230157,20594.5329170404,21468.4939491113,21062.4605094244,21879.2998933569,22051.6954245409,22573.5814359297,22644.9859881071,22207.5644047234,19381.6831366382,21160.247189139,22381.6339441891,22192.4937848724,22059.2214794622,22004.904478434,22584.2276231252,19023.5586357955,22637.9377102834,23935.2948867585,23016.2570523415,21996.8311114001,21113.6792714646,21341.8791536094,22557.9997114896,23216.884606757,23211.8002748571,23048.3945966665,23709.5239226941,21643.1340950926,21898.0052694279,23355.1441017283,22995.2934662638,21390.8282520831,18683.6538913472,21142.5392386858,22411.2304758974,22133.1032755343,21850.37720687,22141.2923699026,23350.8625100482,21938.4765110205,21772.9768195369,22517.0505508568,22622.307844866,9098.07497529463,20382.7547880933,22356.65040334,21892.361637962,21117.6150122799,21856.3329468078,21685.6822659274,22243.3600801619,21069.6239464125,20866.3980327629,21729.1776194729,22010.2066207641,8469.44672810436,20104.5753950463,21015.8449108678,23221.9417228431,23003.5462502458,22264.2420084996,22007.205199402,23850.5819247175,22269.762997437,8187.18630057779,19934.2889306327,11147.6117870321,8128.66611370256,21717.2825455474,22710.6318075901,24434.9131958148,23573.1486963702,23265.3545930405,21353.8541773211,22875.8192148876,20950.7143904503,8755.6055778418,14459.1895533628,10638.118281815,9229.69076689312,20781.1356741223,21310.5428177668,21442.1965575569,22192.5098404142,21607.2220058074,22439.2778655459,22957.0823026411,22878.614431501
,67.5,22247.4559085913,21903.4429447033,23063.6682974335,21580.6375255311,20631.4814110937,20805.2016003312,20464.458448401,20664.9940634695,20664.4410864801,21468.6653591021,21109.7314415879,21938.7441767491,22005.6882294554,22515.7543181288,22585.2956982254,22232.7518828229,19349.2046252512,21237.3494345179,22422.7654831319,22304.0243511314,22088.7076195058,22005.7013110675,22631.9457999274,19083.1640369762,22596.0518102173,23863.7340744305,22960.8219631063,22111.057824408,21089.3827712176,21366.2737234299,22539.177547634,23192.1990903364,23165.4361630485,23004.2359297251,23722.5190019266,21658.0744187525,21838.5187783765,23282.4608981978,22925.7304285261,21466.516291608,18688.9429471149,21214.9565447223,22487.8045449898,22183.8293831541,21892.9458322779,22101.8243528656,23406.3231044128,22012.5831933484,21684.383893203,22430.5869582396,22513.8026371777,9006.63956132628,20377.0223839408,22396.0574969581,22061.0137382211,21222.1597214827,21952.5328455071,21685.1759430332,22332.178796982,21161.1573765717,20753.3214379493,21623.4494448622,21926.257640016,8351.22591645863,20114.9141383435,21081.171823896,23255.5384797468,23039.7232454057,22301.5345875244,22070.8127222688,23897.251452572,22313.1353568673,8079.98434670401,19809.8424380866,11024.714093758,8009.32827548174,21658.0603759242,22681.7514803882,24371.1506615304,23531.2339627177,23224.6922135036,21363.0041761775,22899.4933489202,20992.7074937781,8636.87872052034,14306.275664752,10514.6001675408,9099.46411218249,20781.4900412996,21326.5273521628,21453.517418202,22227.2108336212,21624.5632896573,22393.9150037899,22962.0092258551,22901.2637303248
,68,22245.3125763767,21871.6532937467,23065.0575762842,21599.1046067856,20609.7118897314,20819.9335626381,20534.4498477271,20735.1958967818,20734.3492559196,21468.8367690929,21157.0023737515,21998.1884601412,21959.6810343701,22457.9272003281,22525.6054083433,22257.9393609224,19316.7261138644,21314.4516798965,22463.8970220751,22415.5549173902,22118.1937595491,22006.498143701,22679.6639767297,19142.7694381571,22554.1659101509,23792.1732621026,22905.3868738711,22225.2845374157,21065.0862709706,21390.6682932504,22520.3553837785,23167.5135739155,23119.07205124,22960.077262784,23735.5140811588,21673.0147424123,21779.0322873252,23209.777694667,22856.1673907883,21542.204331133,18694.232002883,21287.373850759,22564.3786140818,22234.5554907737,21935.5144576854,22062.3563358289,23461.7836987774,22086.6898756762,21595.7909668687,22344.1233656226,22405.2974294897,8915.20414735792,20371.2899797883,22435.4645905764,22229.6658384801,21326.7044306854,22048.7327442066,21684.6696201394,22420.997513802,21252.6908067307,20640.2448431358,21517.7212702514,21842.3086592677,8233.00510481291,20125.2528816406,21146.4987369244,23289.1352366509,23075.9002405655,22338.8271665492,22134.4202451353,23943.9209804267,22356.5077162979,7972.78239283031,19685.3959455406,10901.8164004838,7889.99043726081,21598.8382063009,22652.8711531864,24307.3881272461,23489.3192290651,23184.0298339668,21372.1541750342,22923.1674829528,21034.700597106,8518.15186319886,14153.3617761412,10391.0820532666,8969.23745747197,20781.8444084769,21342.5118865587,21464.8382788471,22261.9118268284,21641.9045735072,22348.5521420339,22966.9361490693,22923.9130291489
,68.5,22241.3020779331,21847.7626023017,23072.4255904711,21615.7898955638,20574.7309430174,20829.1010128019,20598.08158337,20803.2228677509,20798.1817336308,21466.9233036217,21201.512437916,22047.8810103041,21907.1167109029,22414.0211112525,22474.5226676751,22280.8380162205,19271.102480873,21395.3461736524,22507.5441142229,22517.9782141666,22147.2332106331,22008.9255110943,22722.8912621701,19190.6239011822,22521.3004612394,23731.9948834926,22861.7106412301,22342.0497425939,21034.0597934139,21403.6817113888,22493.8740489975,23142.7967257435,23080.7825615541,22909.071320972,23744.2625135311,21677.4945728412,21733.8882276555,23138.8860684714,22796.8298132682,21613.5614482932,18683.8010933524,21353.8318466714,22627.3488970136,22281.8520303286,21977.5699426042,22025.9374608948,23517.9049125046,22162.2349782077,21523.9109355207,22272.8754713677,22312.9070967273,8780.40168579001,20352.6604574318,22464.4485343806,22402.7483845293,21421.4980635304,22142.1986031876,21687.7224132185,22506.5154643904,21337.2200639851,20535.9692539519,21420.4377345168,21766.9483955037,8067.55112446905,20122.9729168467,21202.5756708156,23319.0436001698,23111.9941967071,22371.5533349545,22187.8704228787,23985.2893589222,22398.2747828817,7819.36598972875,19562.0901167836,10743.8026711428,7721.81011708864,21534.3560230184,22620.8445960787,24245.3989978947,23453.7077938162,23152.1534631187,21362.9430853674,22944.0708592205,21057.6029871923,8359.37582237018,13977.7438383829,10222.9919557035,8786.32197580904,20771.7419004269,21352.8148012856,21481.4805568597,22282.4551230823,21649.3561836176,22305.7461224776,22975.1597659961,22935.8155047292
,69,22221.5064075272,21819.6963040078,23066.694411189,21630.7084479751,20529.3099554627,20833.3534691388,20656.6312300286,20870.2042137888,20854.6023554512,21461.8758374689,21233.4265813178,22079.9674911425,21842.2470514971,22376.7107362812,22424.5970818411,22300.66929118,19217.972529896,21471.6673171995,22550.2524709067,22596.1194791152,22174.1811235623,22012.8064615816,22755.2096883213,19220.9928905119,22491.1940588975,23675.0883764569,22832.9267231926,22430.1888892022,21000.1612887798,21400.8844971598,22452.9092717153,23112.1304904261,23045.7246851687,22854.3321185506,23737.7942685168,21665.9097315798,21692.134714474,23060.6742975103,22739.1757683657,21680.1539016776,18661.2432954108,21410.4670430918,22671.3353525571,22322.8800582917,22013.7301330018,21990.6588138672,23567.6421425593,22232.6707988491,21464.4096235028,22210.0971542905,22231.4536398488,8602.57183577855,20326.7216726303,22479.1181470935,22551.8244224425,21500.0601711067,22223.9920815865,21690.3156848658,22579.4367644483,21407.0050176378,20441.7750304742,21329.1619315866,21693.1595043002,7857.11402039617,20113.3045995009,21247.4806902314,23336.3454325897,23143.7792953586,22394.9138988556,22230.7366337708,24016.2717201596,22431.1089364042,7620.13476176973,19439.7537129248,10556.2344155212,7504.94378496126,21469.2559201031,22581.0095215199,24181.4044624568,23415.9384082865,23117.6902209088,21343.9565488522,22958.4289332093,21058.4300916514,8162.6873762487,13785.2488397447,10011.477688457,8554.56407240294,20755.1549018463,21358.7856758936,21500.7302515333,22283.103345857,21648.7611763793,22266.7592846931,22979.7452058828,22925.7833998497
,69.5,22173.4008151193,21768.9059736417,23038.4150368878,21636.225576585,20476.8519050785,20826.0021848848,20702.6556087634,20926.0499042821,20897.9816181149,21449.6053857291,21247.1048218911,22086.1097997463,21753.5602607779,22332.5406518215,22366.2701380207,22306.1423025057,19156.761030974,21514.1928162079,22580.7628042642,22631.1214525909,22188.5989861236,22010.2015594152,22766.4782233079,19225.7546137095,22452.6564664256,23607.4592369798,22807.9042470672,22479.1374458737,20958.6448673423,21374.3844360366,22387.1255992132,23060.182795153,23006.5366173936,22790.0774270028,23702.4282466119,21628.9719773726,21637.6319731698,22965.7145303357,22672.0482920993,21731.2820179738,18627.7646210056,21451.3571650788,22684.6372456545,22350.3659405238,22034.6719648632,21949.9910746377,23594.2466414109,22293.6981811362,21405.8246143772,22140.2661769617,22151.7167801324,8383.07241078696,20293.2835380325,22471.5917194525,22654.9726095814,21551.0064143933,22283.9804278461,21683.9586176531,22625.0420359321,21448.8704266792,20345.3188786962,21235.8630846126,21606.1400043874,7604.2152912486,20092.6690028893,21272.7747978995,23330.9928521259,23157.8389584361,22397.4314043511,22261.7588916884,24024.1008450468,22443.4841376966,7376.81520314577,19312.0756975512,10340.2737162641,7242.09231528065,21402.8230472345,22525.4654716755,24107.3474857564,23361.5716506486,23068.8239803818,21313.7479699955,22955.1018384622,21031.0700657276,7930.83226941428,13578.3628749323,9757.56267932163,8276.50435508335,20730.3312643446,21354.1613788146,21513.4043095777,22254.0681450429,21633.8258438409,22225.9564212433,22973.553596042,22886.4321776777
,70,22089.2257021936,21685.197698412,22977.6504914291,21625.6788791496,20418.4033724143,20797.4748007541,20727.2188693421,20957.1013719483,20917.8461623611,21424.2268532878,21231.5916177738,22057.9574077276,21638.5685029525,22268.3329218693,22287.3959976215,22287.7766014986,19086.3011484177,21519.1499046305,22586.2991126305,22613.3454503283,22183.5239480925,21992.2110353657,22743.1646498414,19198.8983430709,22408.1650586186,23513.1922888436,22771.2420611998,22476.7103134042,20906.8308715306,21319.4314218565,22291.3273258443,22976.0914563686,22949.368980733,22709.3659523926,23623.7149816853,21555.4008462614,21555.1016467419,22842.862168012,22584.9651151228,21754.8055900449,18583.4469026603,21463.3665441151,22658.5138112665,22351.1467816643,22030.1397917473,21892.6777037052,23584.951654257,22332.1243383049,21332.4402177785,22048.0735614031,22056.7005237011,8122.42617993094,20251.9479086301,22432.7994796182,22705.0303857694,21567.6733932544,22308.623028879,21654.917293848,22626.9298475757,21451.8830978271,20235.9108588447,21130.4320557794,21489.7370534983,7315.44878934709,20060.6687473689,21270.829514939,23292.8976078762,23142.7687345832,22369.1984553581,22269.6427935037,23997.1421826462,22425.5196378337,7096.83300411083,19171.2279471248,10099.6210126337,6941.31667032902,21327.3944591226,22444.8768811614,24010.5896516649,23279.7195605103,22989.4971030318,21264.3869268527,22920.3448666553,20972.0760609018,7669.61167303262,13356.9425204395,9465.9231909061,7961.47539998821,20693.3318277605,21331.9935676491,21506.9155674035,22193.201104407,21598.0945704286,22174.311776835,22944.2214233727,22815.0865898486
,70.5,21963.6026405657,21562.9956188308,22873.6743082899,21588.421617932,20348.7153343706,20738.6506854169,20722.2862926915,20955.9183625188,20904.7829135318,21375.3962120323,21179.5821968954,21990.2558365254,21494.5817789775,22172.3048797263,22180.0801038026,22237.9686459165,19003.6659180232,21479.3259258888,22556.426718236,22543.6485159389,22145.7529457812,21949.7069112161,22677.3228602974,19140.4675878173,22346.5103784663,23383.2535658107,22710.7412362249,22418.4749555362,20839.1301509047,21234.0150226627,22164.6900715143,22852.6709262474,22860.192009919,22602.7780220702,23501.3457436224,21445.8164800074,21435.5215798192,22687.9953055857,22465.7083746264,21741.436214471,18522.944580318,21441.5371094144,22595.9237596936,22315.5554624439,21993.1362670633,21813.6232069334,23529.7333681062,22336.7615759064,21230.7297590356,21918.4100787167,21932.8943050102,7835.47196661559,20197.8401272279,22361.7262901388,22695.8778986568,21548.1854265356,22289.5771150844,21597.2632659442,22583.6769919788,21414.598207484,20102.6863734968,21003.5977758684,21338.2771094503,7005.90826942311,20013.5246472293,21234.6350750501,23219.3673686391,23089.0354672972,22304.2492069452,22245.4160026015,23929.3139551166,22367.7698211007,6793.65353909795,19008.4253054995,9842.52493185531,6618.68839726713,21238.4151399194,22333.1447534334,23883.9664488975,23161.8638100456,22874.2455192338,21193.3816444239,22845.189633681,20878.887464871,7391.32085286677,13123.0862503957,9149.04089288203,7625.67934457905,20640.6877487905,21283.292293945,21469.7249139563,22099.3027949593,21537.6982101413,22104.2213430966,22881.4355864319,22708.3048315498
,71,21800.9405576009,21400.942996878,22729.0391801312,21518.2140243925,20264.0227514941,20646.87563458,20683.8817214978,20918.6502185094,20856.7507164298,21301.2495369831,21092.5424540948,21886.4837548924,21324.4856252932,22038.9519596866,22042.6006485844,22155.7056833538,18908.1791332912,21392.2543192154,22486.1539651996,22429.3958792871,22070.0768996663,21875.9862626314,22570.4801618939,19049.8797679402,22260.5090825649,23215.5364225299,22621.2469683739,22308.6970093256,20749.3781024916,21117.4902712356,22010.5413877041,22693.951153681,22733.3912088151,22467.3683249517,23335.9466822093,21303.1856969933,21276.4870368489,22501.692462464,22312.8006186315,21692.7845853615,18446.5185543102,21383.9064018727,22501.4323010741,22241.165596473,21921.1361392281,21705.932330275,23429.3635547676,22308.8023759145,21091.761217726,21749.1153778824,21774.1903554463,7542.17713755803,20124.9992240318,22255.2831221865,22630.6878136197,21493.8835121292,22227.1823381243,21506.7747265035,22498.8009485234,21341.1281082686,19940.3297607789,20850.5329767156,21149.4772604802,6695.21234075849,19945.6858852955,21165.2902198145,23109.0299309994,22996.4788314359,22201.4979961354,22186.5149607596,23824.9614318871,22269.7959716329,6485.36053475846,18819.3389854655,9580.88002791374,6295.906645636,21129.050779884,22186.6957529496,23726.5250343589,23007.2859269227,22719.8054327262,21093.4713461875,22727.4867068917,20751.5673271037,7110.93649965902,12878.0433510735,8822.36105890594,7290.3056559189,20566.9691653597,21203.6268061126,21395.9858448444,21974.7698529247,21450.6182079364,22007.9934389897,22780.1947071877,22568.7930616692
,71.5,21609.84333124,21206.591132004,22551.7753561793,21411.8508774066,20160.7302462435,20523.8435736027,20610.5310141591,20844.0806659978,20773.3467871291,21199.131278051,20974.7845160659,21752.1285539694,21132.9857953519,21869.6803416268,21878.731343828,22040.136098647,18796.2374121611,21266.5430642267,22378.2684671488,22279.9823689138,21957.0389044246,21768.2969574156,22427.4107663748,18934.136370922,22150.5327063634,23013.2604889311,22479.8085976082,22164.2440641763,20633.3048828752,20978.2449665944,21836.320816012,22501.6328575965,22569.7385067224,22301.9632370104,23134.7314208144,21131.06245976,21083.9512671658,22288.8083189142,22129.3182531432,21607.1661151938,18352.0317815715,21292.0985764684,22392.3183006768,22133.2520789814,21813.5532672925,21571.8212914311,23287.2679070424,22247.5841701596,20916.5052972758,21543.4083506152,21580.1579963586,7261.18785757476,20031.1995151839,22117.9772353456,22523.408064446,21411.7138497923,22127.2723842072,21383.947050804,22376.1989061283,21234.8861829312,19746.4866236683,20670.2665639713,20927.889381911,6401.81559413153,19854.086269529,21064.1673302772,22966.222539531,22865.1550317846,22063.2552531319,22093.4379345647,23686.0617151313,22136.342269803,6191.73545323042,18604.9046819541,9325.19052001132,5993.36203297949,20994.1870986284,22009.8242511587,23540.8923640446,22821.7491268636,22532.3844447636,20963.2193754388,22572.0290239745,20596.0641085115,6843.71737736814,12628.012864734,8501.15507758814,6973.41787456457,20466.1247139047,21091.7739885334,21285.6050981641,21824.2338635607,21334.2105425216,21881.7080268972,22643.7597502644,22405.1504620703
,72,21398.5322036149,20991.3089085925,22346.499770285,21273.5783835564,20035.9429596929,20371.6402887295,20504.0633109269,20734.840368402,20659.7598618199,21069.9417811239,20830.5492666898,21592.7660018302,20926.7200563915,21670.7014584095,21695.4229691595,21896.5966952702,18668.3648598423,21114.3982426837,22237.1274023002,22107.4900447527,21813.6514963366,21633.2410386547,22253.9325752775,18800.0304902983,22018.1373134885,22783.277739321,22294.1512713408,21990.5031045615,20495.6369676822,20821.2253654758,21659.188895569,22285.2694917387,22374.151744222,22110.2923783621,22906.034116035,20938.7358282655,20866.6810087157,22054.6493141509,21919.7775450966,21489.2734960093,18241.0020012957,21170.0333487009,22276.4840168159,21993.3656384442,21674.582162982,21412.1454210819,23111.4738275377,22139.2155730284,20709.9530612602,21308.2784408849,21354.5861428732,7006.16356896702,19913.8481524481,21955.4297770786,22385.6863012456,21319.0797548802,21993.9094347797,21233.9758822948,22224.324374095,21105.857949466,19525.1510082584,20465.4277018272,20682.1456669491,6141.45300939017,19743.0128762165,20936.8315047127,22796.9805470305,22703.4818564612,21899.7452616908,21968.2639779434,23516.986817582,21975.1344289938,5929.06180348908,18369.6356823389,9085.07806953341,5727.05046032315,20833.3053989019,21808.7601029553,23329.9012259881,22611.41700884,22318.6419455302,20805.6994830753,22383.8062680766,20419.8039281881,6601.18987725747,12377.4875255137,8196.56786036384,6690.17573699497,20339.0423928125,20950.2936467531,21140.6648742455,21654.1733775369,21192.2397798678,21727.0733076984,22475.3712277042,22221.5281650163
,72.5,21175.7353483289,20764.5560746743,22121.8711039973,21105.8189306306,19889.874443744,20195.8552899514,20371.7154118643,20600.9336434071,20516.8768702435,20916.6344987252,20667.1510778007,21415.4576616282,20707.5186442966,21450.5299299914,21512.7089363148,21728.6663080404,18525.2045282803,20941.6591766337,22069.8670620439,21924.6775863629,21641.7367812743,21473.1853427171,22060.7057361717,18654.0953639475,21843.611179088,22535.4539000887,22075.0438872035,21796.8678591221,20337.1541885397,20651.721947486,21482.2442255829,22051.7237023497,22154.2379051991,21896.9728030114,22663.5181465958,20734.1434178782,20634.0718080217,21807.2640185912,21689.2069843664,21346.6649129073,18115.4076379562,21027.6097140972,22158.7589073795,21829.6990619031,21510.9429662552,21232.4108641003,22913.9354451231,21994.6000477269,20480.1603775977,21051.187043842,21106.3525444746,6787.07277590868,19774.3888862512,21776.1255605733,22222.5957267275,21218.4663399738,21836.0845406979,21063.5690727475,22052.6116721172,20960.7650326089,19282.1063362738,20241.1168818319,20420.9339286665,5922.48778653325,19612.2807775258,20789.496925646,22607.7778158773,22517.2123210373,21716.1197107072,21819.1264741335,23327.0114729636,21793.3051132568,5707.06589706231,18120.6599236564,8865.44534006524,5505.41682957015,20652.7332824249,21588.7893916777,23100.158202563,22381.6469484509,22088.4782696785,20628.4860582195,22172.109571855,20229.1307769331,6391.71508489426,12131.1113538394,7913.92542857517,6448.81892591815,20189.3985318265,20783.5293340427,20970.6118859718,21468.5134025237,21031.1055271922,21550.7877195315,22282.8289369519,22023.0414067307
,73,20948.4338989006,20531.10055061,21884.4498767449,20915.5522575791,19726.2034903292,20005.579789765,20219.1663455673,20444.8958040435,20354.5373444139,20745.8284395949,20493.7521185766,21230.7326847184,20482.7683611913,21216.3676834676,21334.0651805743,21541.6642003071,18371.4893290801,20753.5278597991,21880.912988464,21747.6491514055,21452.0491264716,21292.8110317774,21857.4484258363,18499.3687987352,21638.9333576612,22277.4356658657,21831.0106759519,21590.1111089177,20160.3684049224,20474.7059366406,21309.3589878748,21809.702702484,21918.6273471502,21668.5841091478,22409.1871288616,20521.9176625681,20394.051076636,21552.6833205675,21446.2190714112,21185.5768223742,17978.6023174644,20869.9105776511,22039.9400373731,21650.3001600605,21330.2328047866,21038.4839793284,22703.365498698,21823.3843794115,20235.8086492674,20784.9206152748,20845.5420749625,6603.71197642037,19617.995316019,21583.6779003462,22042.9961437151,21112.1073443882,21663.9268874093,20878.5201631792,21865.3925341236,20803.4727869823,19026.5456449732,20001.517504319,20152.9719501177,5744.84106663608,19465.4788984296,20629.4251787592,22405.0657980471,22314.8270427488,21519.2236937899,21652.4897337064,23121.5962110135,21601.632962347,5527.8572553735,17863.2559195319,8666.3485521149,5328.24273481451,20452.5125935455,21356.6435462038,22856.3106728596,22138.1549325133,21846.5700948544,20432.5699721578,21945.2380374824,20029.2603858749,6215.17458351928,11891.5702006092,7652.65451459018,6250.50780158849,20019.1784904447,20599.0198417136,20783.083381293,21274.0453050077,20853.5022149864,21355.9527220353,22073.2311963203,21817.3486327507
,73.5,20718.3487108685,20295.0231905957,21639.6425749586,20710.8457616504,19549.276155843,19804.4117680179,20051.0590359296,20271.5977169306,20177.4819364212,20560.8180966039,20314.2641723336,21040.8887768331,20254.6714432419,20974.2982667282,21162.2823011609,21340.0283255358,18210.0623218382,20556.4800509878,21678.2020728141,21577.1043413746,21251.0919860485,21097.2126881464,21646.6644205202,18340.1119294423,21413.5965856129,22013.47347276,21568.305720453,21373.7898383934,19971.9440239345,20295.5644534972,21140.2424473402,21561.8528497791,21674.5963541778,21428.334073646,22150.8260976493,20302.8416351254,20148.2936245002,21295.0765275742,21194.1755015947,21008.7393778252,17833.358508658,20701.1244607584,21919.219824712,21460.6868069901,21134.710403101,20835.0999810124,22482.3003276344,21630.9921735635,19983.4974578462,20514.860428742,20576.4906281875,6450.33110262938,19448.0971937322,21382.7507664133,21848.6605133467,21001.8089065179,21479.2245935967,20686.0228711977,21666.0269213447,20637.050241147,18763.6903790705,19750.1272524981,19881.6500169468,5603.60597432853,19308.6035257028,20457.5856626596,22191.9681453365,22099.0542066548,21313.7697036954,21474.2950635709,22903.1890772277,21400.0114049961,5388.21112828512,17601.6008403182,8485.46568272852,5190.08278952403,20237.925694458,21117.1248286864,22602.5742084368,21887.2928876267,21598.0887297132,20223.7084842001,21706.552902885,19822.6946371018,6068.03021051874,11661.1984290729,7406.94303939184,6089.10384107292,19833.8884230456,20399.6764108385,20583.628583109,21071.6567118773,20662.3912055123,21147.3520443135,21853.3861179694,21606.6612613695
,74,20488.5177032969,20058.4485918697,21391.1455185154,20496.8709223721,19361.2774291066,19596.661005106,19870.0175637136,20084.7333863362,19992.1421961643,20366.0357616766,20129.0185282127,20845.5593077157,20023.9529539227,20726.3052317033,20997.4991687744,21128.4247434143,18043.6952888202,20349.0007325649,21462.9788720611,21416.6551871808,21041.8169693203,20892.4684293306,21428.8541995223,18176.5772255256,21170.6676819822,21746.4775555697,21303.4543470052,21150.3261667047,19775.8479689599,20112.6566848132,20971.1545836219,21310.6957653936,21426.2293184504,21182.7430350719,21890.1965416057,20083.7723719789,19900.7156168312,21036.1164759667,20936.8158281766,20821.2525086219,17680.690767432,20524.5823488085,21772.4645131305,21259.7646376466,20929.4794385967,20623.9372007693,22255.4532588653,21420.1282254071,19726.6796050456,20241.5491090123,20305.256393332,6320.58465856922,19266.955481728,21176.7695217909,21644.8895247812,20885.093936445,21284.0175474491,20489.1885139326,21459.0585816941,20462.7788776216,18499.7745150882,19490.8443646611,19609.9655839866,5492.12374263213,19144.0965808628,20276.749096964,21970.7089240507,21874.7384671706,21102.9662227674,21287.650644447,22675.5126547082,21193.4773644206,5279.8318919908,17339.4200048981,8319.47422470249,5083.21486638086,20013.4832711683,20872.5657627585,22343.4520570403,21629.7269664477,21345.6062453008,20006.4854607986,21458.7755249778,19612.4553650538,5944.56346904914,11439.3009836167,7169.03538531828,5957.70404950974,19639.9404340449,20190.1596572455,20374.3353369257,20865.4008401781,20463.8959460527,20929.4971543008,21626.4825745498,21391.3220397085
,74.5,20258.5712201415,19823.6390613807,21140.7819395615,20277.0893042051,19165.0436804794,19387.9507513927,19682.5388587225,19891.0994158598,19797.9259334418,20163.3531520536,19939.6256131346,20647.9847402109,19792.7299642436,20476.0718967085,20836.1783912456,20908.0613751904,17874.3091996238,20137.4516772957,21239.2455974084,21263.3625012616,20824.5122375486,20677.2463014267,21208.4078906761,18007.6840075679,20915.3812262053,21479.5876628707,21037.1903863099,20923.5993947836,19572.0822177222,19941.6307949806,20782.1906817164,21059.0213977992,21172.9546992428,20933.3423413207,21627.8614736759,19863.0504540466,19652.1855443554,20777.7268857733,20676.3824790538,20629.1939584112,17520.1964593442,20343.127828968,21599.1488648236,21054.8004308756,20719.0081773999,20408.921260916,22027.5490556121,21206.0500285215,19468.8127929865,19968.3186267489,20032.3230298118,6209.71916526521,19079.3888625775,20966.094169904,21435.1744826422,20741.9837529536,21083.0353418629,20289.6365654793,21243.5456153305,20282.1997337666,18237.4063626142,19227.4819422882,19338.8307964867,5402.51336833037,18970.9509139424,20089.1161227327,21744.1218057333,21644.3868480065,20886.4814735088,21094.2789748026,22445.5823607301,20981.8309697348,5195.17533679576,17077.7821598571,8164.82877248585,5000.22202559073,19781.8622124717,20624.6275787685,22080.3876792277,21369.2667588475,21090.1490366055,19783.0641152034,21207.3641853579,19399.4718574752,5839.32408722974,11225.3712078073,6933.53510027227,5850.11544535251,19438.8919029451,19972.0814220603,20161.4112109062,20654.4808490882,20260.073603844,20705.6874246523,21395.8673681045,21173.3644604301
,75,20026.59982917,19589.285097332,20887.9289940844,20054.313671816,18962.8395156422,19178.4694720421,19488.6341579079,19687.0122597718,19600.9556014651,19958.0223217882,19748.2323939887,20447.0609408727,19563.1185995217,20222.9630834689,20650.1398873733,20682.5917361551,17705.2101426371,19920.9769377345,21008.3917346287,21111.2380116506,20604.0981195587,20458.1535739409,20984.7598156838,17835.9691257513,20662.530922247,21213.147926748,20770.8623304554,20694.7797580112,19362.9003486828,19781.9845284946,20574.6379239305,20807.5602431968,20918.6535753616,20683.278614264,21363.4773070016,19641.4701227675,19403.661931692,20520.0094994182,20416.5284480198,20430.6371152418,17352.1409405408,20155.2592113828,21402.7750200035,20844.8928459831,20504.2988036128,20190.865753121,21796.9796527305,20989.2012823022,19211.240809853,19697.3374664243,19761.3038113941,6114.36263083643,18886.4556603088,20750.7598933153,21221.4078996041,20576.9829305401,20878.2233463395,20088.9595868942,21024.9540296963,20100.4729133434,17977.197602635,18961.1700995177,19069.5887090212,5329.50497623964,18791.4465129435,19895.5372889506,21514.6921179735,21410.7174982353,20667.2309295215,20897.0246821115,22211.544726232,20766.8227348791,5128.4077389181,16816.2995618212,8020.08913814643,4935.84766789707,19545.4672592735,20376.4702641689,21815.9977032462,21107.0948691865,20831.9692612396,19554.5582481086,20954.0688753193,19182.9262341571,5746.36064195836,11018.5754617878,6699.38869532366,5759.94329347678,19231.1473096128,19749.6037611583,19943.2615861238,20441.4250834565,20050.453355085,20475.3454648685,21164.8257256023,20953.430660831
,75.5,19792.8123365276,19359.9903014172,20636.6811377444,19830.6240830761,18755.5528614925,18966.8508363603,19288.8617206176,19479.3574490241,19401.3573736199,19747.9622378489,19553.3146267585,20240.7305511238,19333.5456247548,19969.6663574247,20444.3261435345,20456.2670960235,17536.8840905763,19703.0035513823,20776.3397559276,20935.4962684421,20380.1499836343,20235.980227329,20755.8521116082,17660.9154329218,20411.497190102,20947.8867584944,20505.5975208456,20463.3825824499,19152.7582036854,19630.9040989074,20351.395349294,20555.8297757578,20664.2462130529,20434.5895945573,21100.016880133,19420.7601093642,19155.1116987718,20262.906733602,20156.9228044146,20229.6178392304,17178.8790789578,19962.3843855218,21187.8138808734,20631.034763478,20283.8071713758,19972.1733385905,21563.719307327,20768.5959402193,18954.4743733354,19427.2324091119,19491.5591234272,6031.7580528475,18688.3838223545,20532.8412192586,21002.6797475271,20392.3418878929,20666.7041333374,19887.0800698072,20803.166846334,19928.0785166643,17719.3453710874,18695.0086038414,18799.7284186645,5269.72891633064,18605.2122167937,19695.9197021507,21281.6565614798,21173.4101599168,20446.1956408865,20696.5840413939,21976.9175995537,20546.4877203775,5074.90017425187,16556.22482847,7884.30057845154,4886.34903722919,19307.4799012827,20127.6107568246,21551.4945330533,20846.6541246154,20574.1355409346,19323.4913200201,20698.9459498886,18964.3011815403,5662.62917149391,10818.134833325,6467.70901886753,5682.59042113972,19019.0364482975,19523.8580800051,19720.3211718258,20222.2507267041,19836.6306491527,20242.7357527145,20934.9915463229,20730.948014724
,76,19560.1042178338,19133.4081895296,20383.3355293218,19605.2350472836,18544.1471656005,18755.4604729008,19085.6722153294,19270.4585151206,19200.0609713907,19534.548224224,19352.1575206633,20026.8356394611,19104.9680864063,19716.8396832812,20220.8920046078,20228.5976409134,17377.6454340202,19482.7551494929,20541.0370418749,20738.236586194,20152.9690153778,20010.5324549508,20525.1056913812,17483.0789756989,20159.7243393154,20684.8365765786,20242.7958439577,20231.1520531226,18939.5802599387,19485.0238240739,20113.4024792432,20302.6767428435,20408.7691716712,20187.5809851501,20835.7118036756,19203.258980634,18907.7401076431,20006.3402755203,19899.7992786954,20026.3785409365,16997.9860892271,19765.1211301334,20957.4040972144,20412.6748233279,20060.6979102652,19754.9024656145,21330.642473208,20545.3951144668,18699.681882501,19158.4706355229,19223.7724652647,5960.40860512913,18486.9893558711,20312.8969137553,20782.2407765982,20190.5404779051,20451.9861587134,19684.0484376535,20578.545209737,19764.0470085547,17464.1683340292,18430.4078091633,18531.6104198553,5219.89994045599,18412.9787513879,19491.7155732602,21045.7155762403,20934.9324422009,20224.2393031907,20492.8360163755,21742.5882189903,20326.0554348386,5030.49392480822,16298.5161824618,7755.98697547584,4848.65663343577,19068.700144044,19878.5027125621,21287.0278102282,20585.7068418244,20316.9021350572,19092.9574560539,20444.7176833571,18746.9810945208,5585.39484065685,10622.8883598873,6245.00015123707,5615.9569810101,18803.0849627928,19297.1813996498,19493.5225001227,20000.7004103422,19621.9023167219,20007.5578289486,20704.0408569858,20509.2581164364
,76.5,19324.9757295675,18914.0895162409,20129.1852564928,19379.1550900381,18330.5394335415,18541.8456258166,18880.6513121446,19059.3399848981,18993.5032892769,19319.0707527792,19148.7145122329,19810.5407049582,18878.6189836532,19465.8404651032,19981.299947946,20000.8410399449,17226.2969511481,19263.6173191829,20305.7454933515,20519.7013867644,19922.3511117208,19781.5237626506,20295.0441688834,17300.9312302631,19908.937049188,20423.3903279462,19983.0192895062,19999.3906449046,18724.9031175871,19345.7350986508,19864.0280161374,20050.6485289102,20152.8715433767,19940.3191491692,20571.9851529723,18983.7707271112,18661.5573555211,19750.8732025441,19643.6739868416,19819.3669200491,16813.39569254,19563.0036121162,20723.0606144805,20192.6895451381,19835.9379100866,19537.4125186846,21093.9291503119,20322.1606303887,18446.1653668842,18892.0880763416,18957.2377926293,5897.69698237137,18283.1695376259,20089.8339801181,20557.8200419575,19974.6790377137,20235.5367678404,19478.8104688136,20348.9430954232,19609.6984059895,17209.3583618379,18166.670402491,18263.7503196659,5177.328442567,18214.8007767641,19285.0572608006,20808.3743700223,20696.5527898407,20001.9229046526,20285.7776016554,21507.4360018124,20102.8100170994,4993.33901580661,16042.7026097365,7633.827615774,4819.37650699642,18830.6362831384,19630.0568483625,21020.533662482,20325.484082249,20060.7018891346,18862.2734058787,20191.9752148258,18529.717204103,5512.39432018216,10431.8702586575,6040.07333111836,5557.4396288915,18584.0486341544,19069.439382918,19266.2549959827,19774.61258417,19403.8750762993,19772.9042897175,20472.3462484478,20287.1738620608
,77,19090.0366760022,18707.353250688,19875.6933145789,19152.1013636508,18117.3510036242,18325.5392126996,18675.0479212046,18843.8574079056,18786.1245974473,19103.8531116887,18944.2443875058,19591.2526132335,18654.7906775073,19216.8446616711,19728.7914163832,19774.3990744176,17081.860518606,19044.8484736816,20069.5669918903,20285.9280526994,19691.0013637282,19553.252645768,20063.6154696824,17119.2222534521,19660.7941091216,20163.2928404812,19725.9628567782,19767.3064768258,18509.9112262193,19183.9541458642,19615.2531194862,19797.977013858,19898.9204705051,19695.503759185,20310.6832603999,18766.9086553784,18417.1107503538,19496.5780101969,19389.3438490208,19606.5140442194,16625.8802100199,19357.0144237525,20488.2417652591,19968.598609065,19608.7127610068,19320.5020014665,20855.1540064057,20098.6464338007,18193.0608124276,18628.0057969601,18694.1988115105,5841.11484002699,18077.8294825821,19866.36866791,20328.5598261199,19755.8092781574,20015.8626935428,19271.9874230101,20121.6159072713,19462.7181854081,16955.8029971334,17903.6059666049,17996.1761712487,5139.72385762328,18012.8884041714,19076.8151020486,20569.9469645069,20458.4179427287,19778.344286654,20076.5405292315,21268.6860410724,19878.7348179708,4962.07732958801,15788.9977253994,7516.99713288496,4795.87749991618,18594.1643799362,19382.4514319248,20755.3642579501,20066.0031454786,19804.9649054212,18630.6302357664,19938.8917583965,18313.6451224477,5442.22432484201,10244.9680562367,5861.40659544686,5504.35041209138,18363.1567649076,18841.5237045115,19035.8024079229,19547.3201727703,19182.7626588648,19538.6118426826,20240.7043823935,20066.0548956393
,77.5,18857.5385842714,18511.8235505407,19625.3919459685,18925.6041236156,17905.7647304521,18109.6596194346,18466.2913703289,18629.7015632531,18578.6820544427,18885.1880436556,18738.5267925475,19370.1169021124,18433.0960314306,18970.0902881583,19480.9768962328,19549.43859699,16942.7539616275,18826.5504711495,19835.3520218851,20039.1255381924,19461.3475958546,19322.4774749836,19831.0865699414,16937.131007415,19414.8471675803,19905.1706472551,19471.1825563484,19535.303934078,18296.7519364914,19002.4274357879,19368.5110385741,19544.4502502572,19646.0462368837,19451.2732318422,20051.1774622713,18551.9643700867,18174.6343564673,19244.3218273842,19136.3188061531,19392.3588292281,16436.5347000616,19148.1103530439,20253.376724085,19742.8722103335,19380.4694108103,19104.8135689095,20615.0881776917,19874.9510931094,17941.0313959682,18366.0513706516,18432.8033654214,5788.8515006035,17872.1620948953,19641.5315880383,20097.0006606101,19533.1898228378,19792.2419335743,19063.2556164399,19892.3229136762,19318.2242664439,16704.3450376655,17642.1926412775,17730.6241431247,5105.44943597838,17807.3408262906,18866.825356666,20330.692906372,20220.3273407448,19552.3414546679,19864.6307527124,21030.9068158821,19653.1052218134,4932.93132129605,15537.8229115714,7404.26090679261,4775.63892786329,18356.4476123588,19135.2819516148,20491.2291751987,19808.7757486145,19551.8094110135,18398.2206384118,19684.8353383169,18099.2661953487,5375.18013932427,10061.8912422801,5712.6501607522,5455.97404073939,18142.3320424889,18612.7926589193,18805.6060149993,19318.3344277048,18960.5341370777,19306.4718879877,20006.9237689907,19847.4351343203
,78,18625.9943413996,18322.3442519432,19376.4160292012,18699.5679999932,17695.7028044526,17895.4366992682,18257.6746412263,18415.8932690224,18368.3325075447,18666.5625148914,18534.8860958295,19147.0786362023,18214.548208434,18724.8393330625,19235.273383551,19322.9984966485,16803.3377127364,18608.1928304499,19599.8780362251,19792.9866347444,19232.2311238443,19090.2618288145,19598.9967012646,16754.5748091996,19170.3560794027,19647.6649661375,19219.1236762433,19304.8511502758,18083.2551993292,18804.1186005723,19123.2761600799,19291.2242804071,19393.4957301469,19205.192185519,19791.7896686893,18338.5365711198,17932.0924038706,18992.9888797681,18885.1066119495,19173.785932827,16244.8984078624,18936.3508516574,20014.9005726495,19514.8019276784,19152.9126033272,18887.3396946043,20374.2792841611,19651.6740501272,17689.8007103916,18106.53545766,18172.9122197927,5739.27930487443,17665.2409877426,19414.758746557,19863.3655086478,19309.3483863818,19568.9743172464,18853.0581679706,19661.1715673778,19155.7054462829,16452.8440926804,17382.7335677929,17467.9819231609,5073.29202140567,17599.4111982121,18654.8922511598,20091.0654689178,19982.7892624912,19323.9504896816,19651.4116348906,20792.6452882548,19428.6494171263,4903.10785193441,15289.2856634088,7294.34009159402,4757.16709054117,18119.5062133935,18889.0008504261,20228.3201309596,19550.6982072993,19298.6252924536,18166.3428577502,19430.8036318903,17892.025608659,5311.31806809595,9882.31854002382,5595.34750376724,5410.62291360173,17921.0055094482,18382.7758283584,18576.4532360879,19089.4477175475,18737.7127890088,19074.3096866143,19770.955556734,19632.2364351
,78.5,18393.517932525,18141.8325796193,19131.7138221272,18475.0468171945,17486.9299199407,17681.7279196433,18048.3760061393,18200.2274088352,18156.8614582322,18448.2892424727,18334.8234068831,18925.8125125879,17997.7797293187,18481.9362654378,18990.7494111932,19097.9429716695,16648.2208391008,18390.7480528202,19365.6389845477,19547.6522232818,19002.7419632016,18859.6141177905,19367.7755942763,16572.1715101744,18929.7748691586,19390.8527614278,18969.5945762059,19075.2016765053,17872.0239345932,18593.0251733232,18879.0863590207,19039.9449703188,19142.0633019852,18959.6088530737,19531.2097718848,18136.0239959869,17692.1263486951,18743.4945403812,18634.7536438952,18952.1879993444,16053.0630306931,18721.9910702238,19773.2622042362,19285.8830997854,18925.907161116,18668.2836942599,20131.0999288522,19427.0159078077,17440.2403630981,17847.9165079185,17915.5600003499,5691.33891578243,17458.1070663141,19186.4893579631,19627.0913973689,19082.0061260936,19344.0735409433,18638.2398925122,19428.9453769905,18976.170735125,16203.6036595779,17124.6114702582,17206.6084330857,5042.74853357675,17389.6621428761,18441.5384453569,19852.9074182403,19745.8081105694,19094.5219421996,19435.6577608468,20552.0287214006,19203.0855496632,4871.0598938316,15043.031780782,7186.92933242239,4739.08124730119,17884.2931402387,18644.1699208641,19965.4302030816,19294.3254052449,19044.7252712026,17933.6497016664,19176.0559535996,17698.0047257052,5251.49282743441,9706.68673944979,5505.50213562194,5367.62832418865,17700.1681129201,18152.2170296911,18348.1471479009,18860.3645173561,18513.709386643,18843.2225661522,19536.5322329733,19417.1770511633
,79,18164.1109239857,17961.3690965258,18891.0272236646,18252.5842600397,17280.620271224,17470.9278779916,17839.7555745505,17984.7590625991,17947.3330753669,18227.9677911756,18135.7897093792,18702.6353377408,17782.2770349173,18240.7093335523,18748.4578503324,18871.8702044235,16478.6692526002,18173.4777886154,19131.5818284813,19302.9367160081,18776.9200092082,18631.6538978288,19136.1330451845,16391.1813401292,18692.2746314291,19135.523253147,18721.8543897762,18845.8410701077,17662.2539495681,18368.4999725111,18636.4484845787,18788.6537466216,18891.4455145911,18714.5561893699,19270.1065280313,17946.5667832249,17453.2135835214,18495.8435339117,18386.0589815285,18728.7161070534,15858.6399585393,18505.9510369677,19531.7187029478,19057.1235960126,18698.4977797611,18450.4022808993,19889.6919432154,19202.7197365165,17192.3111337242,17591.0008199104,17660.5202340624,5645.2506791316,17250.1439082579,18956.9731934516,19389.7653440781,18853.3708946632,19116.7007513715,18422.8936258875,19196.532302071,18780.2968585997,15956.8112257081,16869.8147175932,16948.0183772674,5013.57032666476,17179.9949334917,18225.2771569537,19615.6475070941,19508.2046101091,18863.826526569,19219.3232160828,20311.6131430025,18978.2207238468,4836.07371243082,14798.8088554059,7081.9866737639,4721.76584739745,17649.3177865411,18399.3720836203,19703.6016133116,19038.6562564108,18789.3976530109,17700.8179554799,18919.0435661872,17517.9824620243,5197.00083731339,9535.09040863522,5436.42481699283,5326.69747129393,17479.2220753528,17922.2330425503,18118.2043159193,18631.2921378198,18289.4880772696,18611.6029931268,19302.546904657,19204.7729555987
,79.5,17936.3000269677,17765.5726503813,18652.7967444537,18030.9811205306,17074.9683884573,17261.6951147294,17628.057214781,17770.0143779036,17736.6185885498,18004.0992824959,17938.0402022496,18478.4104438438,17567.7900537416,17999.3816766297,18508.381690351,18646.3488424167,16297.602957931,17955.647978218,18897.4390544172,19056.8252850339,18552.2014685026,18402.9409985466,18906.5183573089,16209.0266944944,18455.3521958573,18881.7397177264,18477.0457660745,18617.5351820531,17453.8997064976,18146.8858245052,18394.3039166096,18538.552692,18641.4748495177,18468.5028045419,19009.3108140997,17766.7097455501,17214.6093732459,18250.001956653,18139.3026840239,18504.5479648726,15662.5149536921,18286.9074279872,19289.443705264,18828.1482523882,18470.6020761266,18231.1898918311,19646.8686737753,18978.1288692578,16946.1242420483,17334.934886548,17407.3312254841,5600.9300842823,17040.0422374508,18724.5020026685,19152.5740671806,18623.587130655,18889.250551716,18205.9064254894,18959.0468132863,18570.1071433725,15712.0186889957,16617.3344502392,16692.1921493362,4985.88699271981,16968.9560088896,18005.0558136482,19378.4491590435,19269.9488088972,18633.2371812778,19002.140619254,20073.6552884617,18753.6767580886,4796.63713888301,14556.7817967919,6979.6124935734,4705.27313573443,17414.1842536144,18155.6049700086,19441.5864357645,18783.153180676,18535.0654167207,17467.5094920315,18660.7505823355,17348.6672708601,5148.55697660767,9366.83065329906,5380.22169936741,5287.31421589611,17258.8388882341,17693.3237543555,17888.1665818805,18402.1902475454,18066.0468113148,18379.7361576789,19069.323517487,18995.1276931483
,80,17708.894196836,17555.1702714432,18415.0273910207,17808.8601047404,16867.9891737204,17051.805683571,17418.3391976947,17553.0908948037,17523.5228299282,17779.0247418361,17741.682893841,18253.059461597,17355.863018145,17759.6655973199,18268.8172986153,18421.8106349943,16104.6282908353,17739.3416268187,18661.9103167047,18810.1184086754,18324.9794564987,18174.5830010497,18678.1814164749,16024.9066143806,18220.840958733,18629.0772510651,18235.1174745331,18390.3550978419,17244.3798350235,17927.2950233106,18151.6148979589,18290.8798678339,18391.4899962773,18222.161019645,18746.0174450524,17596.2791526184,16975.8743316764,18005.6640773242,17893.9818315421,18277.5780711102,15464.4262845306,18065.7863381121,19044.796792252,18597.3978055757,18242.7632768586,18011.7974700463,19403.5424087744,18752.457786076,16700.9885604762,17080.2906553375,17156.5739853721,5558.01755058363,16827.3412708234,18491.1352780981,18914.3835245165,18394.1967501193,18662.0825185504,17989.1117876292,18718.1375733884,18346.451826997,15469.6809859339,16367.0751711042,16438.5732572426,4959.5145817085,16757.9103720509,17782.0238201216,19141.4285516533,19030.7434129692,18403.7525432525,18782.8255738713,19835.4174023015,18530.2357997812,4755.32350679319,14316.7154870291,6878.74187318858,4689.53991315225,17182.2667542063,17911.6453340796,19177.9778858173,18526.7433706539,18279.4520630629,17233.3151060125,18401.2953355293,17189.6455898092,5104.8611655562,9202.39381446259,5331.87970595878,5248.78634168886,17038.8232715803,17464.8401108209,17656.9964822348,18172.632831675,17842.2135963592,18146.1437578393,18836.2144846607,18789.4704976603
,80.5,17482.0937575513,17332.4716313455,18179.0724016909,17586.1971707101,16661.1801807195,16841.5894251482,17207.9560289475,17331.7839300724,17311.6968593501,17553.1831105825,17547.0025417141,18027.159778769,17145.0609565466,17521.4355177522,18031.3687425969,18198.3209498273,15903.8886601981,17523.1822518278,18426.0046346136,18563.2260252637,18098.5091172285,17948.7815757244,18451.4542676877,15842.2399950237,17987.9001877169,18379.6276999624,17995.1358695481,18163.5796692252,17034.3837380409,17709.0171213621,17907.0278359302,18043.3655921827,18142.7491118347,17978.5691483113,18484.1067243976,17431.3716953896,16740.0212219937,17764.3483718819,17650.5115282019,18049.1732459865,15263.4713420005,17841.3853853338,18801.0584047186,18367.1615534075,18015.0543010245,17792.7101787562,19158.1545995995,18527.2896882147,16457.2750052333,16827.3374687942,16907.9280502901,5516.60589960168,16614.1979884866,18257.2638431941,18674.2467323557,18162.8236837136,18432.1813877994,17770.3311450682,18475.571868107,18119.2857202536,15230.6559766049,16117.6045233131,16187.2500239256,4934.03866122872,16546.9863174038,17556.2089127182,18904.7143396488,18791.5275512416,18175.9961345481,18560.004058114,19596.5829761351,18305.5035434341,4715.21486310349,14077.9860395774,6780.0936663061,4674.32509834301,16950.2056727171,17667.6627800793,18912.8731416477,18271.3225147603,18024.2167332873,16997.7429587129,18140.757594181,17028.1666765484,5065.17142806539,9041.62970735564,5286.53015965527,5211.20335587354,16819.2648279638,17236.618893872,17424.5537305887,17942.4397732082,17617.8520547658,17912.9660266954,18603.9537763915,18586.722339866
,81,17257.7586273662,17097.4703395646,17944.5663583674,17362.9421416853,16453.9394246305,16631.7497754669,16996.5547864572,17107.6407094746,17096.1793622446,17324.4590830499,17363.8459975522,17800.0402079508,16937.6871960173,17283.6487689939,17796.5856454374,17973.4532570825,15701.3352707252,17307.2612239151,18188.7060254749,18317.1244846914,17873.4980184033,17725.3303908014,18222.604939273,15658.688699276,17755.086084116,18131.733564463,17756.7765012686,17937.3744365494,16822.3139471505,17489.5622913273,17662.1431921649,17794.9607868017,17896.055665784,17736.1136721292,18222.2856112561,17250.8356004388,16504.806616969,17524.4231397646,17409.2989189373,17818.628776889,15059.360794614,17613.9226550575,18557.1153705257,18137.439993738,17785.9175222177,17572.84505343,18912.6821422849,18301.9886580625,16214.9324899177,16577.1923775895,16661.009893123,5476.37518866513,16399.1319627909,18022.8018917863,18431.5166014236,17931.1663447326,18201.5632454168,17552.4299978222,18229.3085745553,17887.6951717581,14993.2067099662,15870.587333051,15938.3877260329,4909.36427505343,16334.035434687,17328.314406037,18666.1116230166,18551.3693950335,17946.9343525811,18336.2826430375,19358.8049011675,18080.3621339017,4679.45944887653,13841.1977440644,6683.70396941702,4659.51381085846,16717.4361016076,17424.1725313239,18648.7733076209,18015.3914179887,17770.4902586502,16760.2161194495,17878.9729773051,16847.2749871351,5028.72314612774,8883.75104471073,5241.04613429219,5173.86479474908,16599.531698126,17008.3405562935,17192.6145243099,17711.6551177985,17392.2088197158,17681.469469871,18370.0380435816,18403.009181746
,81.5,17033.8703040961,16853.9921030851,17711.972592759,17136.6231003268,16244.7197997689,16419.7834470141,16782.0222715132,16880.2890847352,16876.306194661,17095.3810947919,17189.9277759476,17573.2508941626,16734.3237535576,17047.0458964526,17562.9984080676,17748.8821146765,15498.494626752,17090.6406940118,17949.6071255028,18070.1057932144,17646.6661933316,17500.8656532935,17992.6683742766,15476.2696838265,17522.7944895599,17886.4308397639,17520.5368788889,17711.175702548,16609.7802980774,17270.3094047519,17416.8174872829,17547.3990625846,17649.2991447482,17494.113070422,17960.3712192861,17054.5674515688,16271.5997142236,17285.6411930655,17169.9107307793,17585.9949126314,14853.6211017787,17383.5956475105,18313.1242184059,17905.7819882745,17556.8625593558,17351.478773066,18666.090899388,18075.6064182416,15974.6203725507,16328.5654033031,16415.7390223375,5437.42007005314,16183.4149197661,17787.3103512131,18186.6823588448,17697.4841419944,17969.5246523857,17332.768080008,17978.5527175204,17651.488770893,14758.9648809329,15624.1542587426,15691.0045734766,4885.09302196548,16118.3647133445,17099.2089939841,18427.405293434,18311.2332161621,17717.3338674547,18109.5977617645,19119.3266495745,17854.988165673,4649.27833610335,13606.2200083457,6589.17921540996,4644.94125461548,16486.4171678941,17181.3925371243,18385.2700005369,17760.290998612,17519.0794974203,16519.5723473261,17617.809469087,16646.9406368748,4994.49214215243,8728.73934446776,5191.72829535001,5136.86669368487,16379.5701225848,16778.3043483833,16961.7167066746,17479.8739038529,17166.4147936837,17450.197196167,18136.0191472264,18236.9496294519
,82,16810.3751025786,16610.6864073783,17481.6049261413,16910.33874982,16034.6470177472,16206.271679675,16565.2810358146,16649.1705045657,16652.4708487619,16867.6063683898,17021.5832850579,17347.4700130292,16536.4297374804,16813.314053277,17332.7237041396,17522.0407867486,15293.117048106,16874.5404757609,17711.2425009705,17822.209413067,17418.2174316589,17277.252882232,17759.5185225046,15295.1460187855,17293.3284913001,17642.3441371739,17285.8519940464,17485.4902960069,16396.3639015283,17050.6694651636,17171.9544018652,17301.6547507936,17405.1771938843,17252.5889813192,17695.6859669828,16842.0025756181,16041.4516695928,17048.1915436258,16932.181766653,17349.943898763,14644.7853360943,17151.7521880524,18068.3788567742,17673.0646319303,17327.9461043965,17131.174941849,18419.2345631642,17847.7385007961,15736.9541520397,16082.3606489845,16172.4940697807,5399.51610923981,15968.0073208051,17551.7177158817,17939.8092246246,17461.9342909664,17733.9559339362,17111.7567911355,17723.7235734985,17409.4827079981,14527.3862907943,15379.6959345033,15446.1730958669,4861.46895810902,15901.5964519555,16870.2535233658,18188.5104157632,18070.1280177953,17486.8288256308,17879.4374560328,18875.8007324878,17628.232393676,4625.05406285124,13373.1647036797,6494.54998107996,4630.52086891131,16258.1258285854,16938.957497925,18122.3935671796,17506.3311329227,17268.8099355631,16277.315641214,17357.6137362561,16428.8466218647,4961.51516398749,8576.78310368601,5131.66974372507,5100.70770584837,16159.624051687,16547.4317587016,16732.0921246159,17246.1132934053,16939.3125382645,17219.2169140898,17900.0014137673,18084.6215332293
,82.5,16589.0341814162,16368.9643210831,17254.9095880098,16684.3322145448,15824.5466440843,15992.7399723285,16342.9755156628,16416.5349525519,16424.0368353265,16637.639735706,16857.9864531364,17122.2896798205,16354.9659126128,16580.5550009767,17105.7629472979,17292.3251722115,15085.276541101,16657.2910669815,17474.0009155456,17573.6864914161,17190.6187671353,17055.5893769748,17524.4632270915,15115.9319544404,17063.7606522552,17399.8010936801,17052.4929443105,17258.5830200902,16182.7644477455,16829.3741778278,16928.6923853207,17055.6419667493,17163.2922152037,17012.3682506309,17431.9980302319,16613.6698498301,15814.7096484324,16812.5753296085,16697.5132366317,17110.6664377006,14432.1862554831,16916.6066070991,17823.9394179208,17442.2722690164,17098.4482578685,16910.4503128812,18170.775377901,17618.8692268294,15501.6938777523,15838.1848985727,15931.1181807037,5362.99479986362,15751.9309381753,17314.7945095144,17689.321526626,17223.2831347948,17494.7272509818,16888.1421318117,17465.5198626651,17163.3496177647,14296.6551909484,15137.0313889199,15202.6645540799,4838.28960804395,15682.0293748887,16638.8577773281,17948.4654541238,17828.3775520689,17255.925239954,17646.5494496312,18629.2998542772,17399.1717915939,4605.80280476033,13142.3894500837,6397.99257080384,4616.35760258413,16028.9485881872,16697.7745466144,17863.8035909581,17254.7891744663,17020.236775386,16033.6402739427,17097.6612075978,16194.1293973929,4929.61869942796,8426.50891874783,5053.99872522592,5065.05001988092,15937.311960081,16316.3154313752,16502.6957266053,17010.9042888252,16711.7654428625,16989.9520847676,17663.8638629264,17942.2765074193
,83,16372.0998386583,16129.8192594389,17029.5604812111,16459.3772442447,15612.162327755,15777.899373614,16114.0455306625,16181.2967036844,16189.1962822408,16404.5397757852,16691.968424768,16897.7875988957,16189.5228773352,16349.8841461871,16881.2676460917,17059.3299128689,14876.1046526833,16438.9703356873,17237.7980195943,17323.6937350869,16961.4456190337,16834.1206135781,17287.6826014964,14935.1521641329,16835.8876475977,17157.1161198073,16820.7997715831,17030.2815251665,15968.4510784414,16607.0818173583,16688.6602353358,16811.6130453079,16923.5963255746,16769.0461292871,17163.6997171571,16374.3427054191,15589.462200003,16578.211332284,16464.4035985444,16867.4215344107,14216.9304138958,16679.2790974136,17578.951827306,17211.4054458275,16867.4879276542,16689.3809300449,17922.5477218381,17387.0588916497,15269.2580191608,15594.687591681,15692.1197200063,5327.44150618747,15533.5968976966,17074.9687338234,17438.0202763431,16983.4812828678,17253.0577766794,16664.4359842448,17200.6006358681,16912.091889371,14066.9620024419,14896.383486581,14959.6854852728,4815.63807020317,15459.5983394503,16406.0588678954,17706.8707479968,17585.5457612201,17022.37273302,17411.1325084617,18379.1316007694,17167.6549104618,4589.62273521841,12913.8421362445,6292.63078875363,4602.4062473358,15801.943872364,16458.5454176368,17608.1039252728,17006.2243422201,16772.8892155406,15786.3632465527,16835.563982658,15948.702510033,4898.82744023084,8277.96161661021,4958.41339311925,5029.50552198747,15714.4443660391,16085.0426882439,16272.0501420797,16775.7211203112,16483.6565307292,16760.3922956543,17426.0613003995,17806.5454470879
,83.5,16158.3847176,15891.3134944875,16806.4975194088,16232.3450618327,15398.2178149141,15560.8827264214,15877.2759440725,15941.7736940971,15949.3753968836,16169.7287339313,16502.9166461188,16673.0655222632,16036.413889001,16121.7377915078,16657.7502503238,16823.9233069215,14667.0653828139,16217.3552341565,17001.2876147561,17069.6416050028,16730.7234680347,16608.3483111902,17049.2671070758,14754.8545802968,16608.9485270894,16915.8804653418,16589.6912606766,16800.516535357,15754.0016568547,16385.2625090253,16450.8599060064,16570.1577621891,16682.4231572862,16522.1895370996,16892.961634344,16131.2807328938,15365.953453601,16345.235879319,16231.7733784148,16619.2829616065,13999.0765522681,16437.8935707818,17333.7927149321,16977.7609981537,16636.7106283678,16468.9203880023,17671.685083281,17152.6092635025,15036.6671519221,15350.5015011063,15454.6242149374,5293.39631201403,15312.2382220272,16830.7659194056,17185.0968172005,16740.9754780156,17006.1109059547,16439.4571460424,16925.6803503859,16653.3769822669,13836.6158949615,14655.2011782522,14717.849557618,4793.63677292057,15234.2810538375,16170.2008869931,17464.2650179699,17341.289276079,16787.4029883599,17170.6157636099,18122.0261173615,16933.3209274875,4573.64301737243,12685.7185529381,6172.60669136113,4589.14079711053,15576.0212740321,16218.5598142337,17354.4049358805,16759.8743533882,16525.4310050896,15533.4303466088,16568.1492186858,15698.8282480844,4868.41198770832,8131.50218244023,4848.04748829055,4990.6728988697,15491.6903835888,15852.4086875747,16039.1575755943,16536.8206297013,16254.15029831,16529.4558686452,17185.3789271772,17644.0776871165
,84,15947.8137782664,15655.2082742092,16583.5956171824,16006.4227566752,15183.7440961967,15343.2341983181,15631.7094555971,15695.1614335585,15701.1832127431,15930.558286864,16292.7821934272,16445.4397367505,15893.4915681486,15894.1339429067,16435.4350573762,16585.4060344068,14456.7598480252,15993.7808805342,16765.0591347176,16813.0682983133,16498.6719475711,16379.0575765424,16805.2090085393,14571.7830948506,16382.2769179492,16673.8114048049,16358.8907533218,16569.5781835933,15537.5782007998,16162.9532196705,16215.5609723607,16328.8386691699,16441.4858812432,16271.3437313276,16614.6816111384,15881.3844942728,15142.3273342508,16112.4296806937,15999.68331673,16366.1672133005,13776.3260122285,16191.7631853287,17086.4694040696,16742.9966857261,16403.8482499861,16247.9982318582,17415.1255652827,16910.0737749084,14805.1903544398,15106.106266962,15216.5296207498,5259.87269704543,15086.0126821037,16580.5553842886,16929.6235244197,16495.0774746178,16755.6172764298,16211.32342714,16642.4559382279,16386.4254974653,13603.1562971777,14412.4337062413,14476.0333801251,4772.7397533056,15005.9272696934,15929.6115394645,17216.052112514,17093.4495464998,16548.3926840272,16923.9045201496,17856.9964345159,16689.837684427,4556.57026115367,12456.6330244138,6037.29521327455,4576.13340665713,15348.338266994,15977.0948347833,17101.9915169621,16513.884540399,16276.0599158799,15271.2697219661,16289.5492400548,15441.1905374076,4837.16959987778,7986.36215526901,4730.22601503517,4939.58237231123,15265.745672411,15618.9786439687,15802.1428370368,16294.3283246801,16019.2903007457,16296.8525614481,16939.6904155224,17453.3342801675
,84.5,15740.0966796963,15421.4057138085,16362.0984360296,15778.0983390605,14966.701835468,15124.4973055469,15374.8245064159,15438.2855270058,15441.8937517619,15684.2684093891,16062.0782107543,16212.1451206088,15755.3767068138,15666.4515171069,16211.2667150308,16344.1959451438,14244.0713332471,15766.2840632804,16525.480361098,16551.7532102419,16265.2314673499,16145.1913760997,16555.576633968,14385.0126457137,16153.4768376436,16430.9128426455,16126.9995429248,16335.4267310928,15318.1634859926,15938.1618798822,15980.0227596043,16083.7788906816,16196.3461448744,16015.3597242366,16327.9979277403,15624.4980029071,14915.771311324,15878.4566349845,15766.0832610597,16106.3766647998,13548.8036983998,15939.7398178492,16835.0665267689,16505.4259654657,16167.0887365231,16024.7828731462,17150.8754470808,16659.798959428,14570.6997509133,14858.4732079211,14975.8443438633,5227.26773198895,14852.5785677955,16322.2659439279,16669.1955647266,16246.7277927711,16502.02362288,15979.3400806983,16350.5726610686,16111.3420996848,13365.3767579632,14164.9472197839,14230.3179376965,4752.47951261998,14772.9597060996,15680.9463913129,16961.3715547309,16841.6725743493,16304.2823329611,16670.2088106322,17583.1377561721,16438.0546443242,4538.789552525,12223.0599937915,5890.15437494958,4563.01024814902,15116.0803396062,15731.4627825184,16848.681333139,16266.4436511358,16023.6076166559,14997.189490219,15994.5100814356,15173.2483807833,4804.9807341962,7841.99653237845,4620.33668161613,4874.46644102292,15035.5495635186,15382.0830167989,15559.0122652086,16047.4186865674,15779.5301283638,16061.0193606651,16688.4968032858,17237.4501378279
,85,15532.9396476438,15187.193520243,16138.0791764774,15546.8293261764,14747.4997660551,14903.3162507914,15104.7304202444,15162.4325556292,15167.9533433812,15433.7427910671,15810.9766607131,15977.0351743446,15595.1926136841,15437.4371569341,15983.1684887217,16098.8073888298,14030.002203924,15534.2868196064,16280.8165790243,16285.9155050756,16030.3701826172,15901.8306470587,16297.7428413794,14195.7986224402,15920.8957568794,16184.7302493777,15891.4084097585,16098.9717155633,15095.3655329699,15711.0028731391,15741.3802485402,15836.5909732291,15944.8603143562,15751.5209849212,16026.999717829,15358.615654346,14683.8023046379,15639.3734542083,15526.0091998111,15838.7021332602,13315.8699500077,15680.500534934,16578.3396915609,16261.230529258,15926.7976363627,15797.6404236318,16878.1048363495,16401.5160711069,14330.4816462161,14604.5949867471,14728.7113946026,5195.05728543166,14611.429361776,16053.0059206824,16405.5946851857,15994.9731935613,16245.0223383567,15742.2310419782,16048.8539279521,15827.4937147415,13120.7118955031,13908.1041756224,13977.4391968525,4732.66962497087,14534.1372412924,15425.0015062146,16700.8074029566,16585.0299504559,16054.9029250926,16405.2570058098,17298.6653514883,16176.6947157398,4519.98427166474,11976.9864657868,5736.98816751347,4549.6029447969,14879.75843311,15479.0363208094,16588.7793637342,16014.5074085398,15766.7520702131,14706.7993973385,15678.454171565,14889.6213058266,4772.18412131101,7698.23691776006,4532.81718406871,4796.63571902163,14801.7022813987,15141.0733717767,15309.6745448366,15794.1132425161,15531.537215782,15819.9016196726,16429.5691326151,16995.4595625876
,85.5,15322.9987417964,14949.6759976443,15910.1479142413,15310.1701124854,14525.869033716,14678.8748713226,14821.8614297541,14869.3548616808,14878.7267252164,15178.5875563071,15543.4913201737,15741.7253513214,15411.2171790362,15202.4616361504,15747.7278015988,15849.5967802076,13811.256478918,15297.3228440531,16030.6065728445,16013.9072631228,15792.7237514078,15648.4492314957,16029.5327580343,14012.3793373631,15679.8052486851,15930.8662175576,15648.0880544431,15859.1878696983,14868.250520654,15480.4945471347,15496.5157692707,15582.9350403694,15682.2852137311,15481.2841427515,15712.3751531761,15077.6690977702,14443.1401405909,15390.8961999347,15277.4962176785,15562.8730924734,13071.823642202,15411.8819151292,16314.4447401989,16009.9167812465,15681.2320557749,15565.2853078673,16596.067370942,16133.4967504984,14078.4528790238,14339.1900972446,14470.1051789499,5163.61577208004,14360.1272229482,15770.2975795634,16135.4013240341,15737.4464397776,15982.2060973307,15496.9124344405,15741.386431834,15537.722474753,12863.1233906147,13636.6621485116,13712.0998957622,4713.39924451939,14285.0443835243,15160.3251665014,16433.9472387786,16322.691876807,15800.6613958492,16127.529901486,17003.0704439371,15905.2654223582,4500.62930951803,11708.6159362753,5590.98974467889,4536.13256385288,14636.7319340817,15218.3341689669,16322.3996113131,15754.2293128938,15501.9351336715,14400.1817810032,15339.2995389312,14587.5482054374,4738.46801174018,7553.53043709446,4470.56000381089,4707.81723698465,14562.3467192292,14894.8807333184,15054.3835123856,15531.7160148932,15274.5074963063,15573.8466323336,16162.3774217958,16728.6622773812
,86,15107.0450130073,14705.2574954418,15673.2338911644,15069.3523951049,14298.4502584233,14449.7185124561,14525.3568115158,14557.5670995916,14572.6396212584,14919.2553071851,15271.9758074707,15510.0726240336,15200.2620716503,14955.8778884571,15501.5489823877,15594.008970039,13586.9643985729,15054.9494191964,15776.3070278184,15737.4015035327,15553.0682687508,15387.5911548522,15751.967889176,13831.6777606749,15425.0486355634,15663.5363062422,15391.6847819849,15613.7670670161,14635.0006618251,15244.7111368605,15243.3575132047,15318.5530717524,15408.9028044257,15203.4553869106,15381.0170991947,14783.6875545737,14188.0548078571,15127.6645187738,15014.3704112019,15277.4854267544,12804.6013557116,15130.8558331623,16042.9426374044,15752.62359303,15426.9384913644,15325.44962545,16304.9924510014,15857.0919304417,13810.8915773438,14055.9636241813,14193.2182450227,5132.33776788936,14091.356367635,15470.2419501059,15859.401515426,15476.1596152517,15715.787048342,15239.5428539649,15434.5281849846,15247.1336081853,12586.0321078936,13344.159022972,13424.9010333894,4694.0408687363,14021.663832373,14882.3901727745,16160.7025983063,16055.1650713506,15541.8265824545,15835.3669656338,16698.281823301,15623.4760062856,4481.96227567696,11411.6096375417,5463.13514897274,4522.19829000599,14386.8239077703,14948.1863832825,16046.2534306497,15483.979714847,15226.5846301931,14078.7025501559,14978.7005107024,14269.1809633431,4704.15785149692,7405.35973363544,4431.36900633546,4615.39334960262,14314.1886292377,14642.7751685999,14791.0586291247,15264.1409288692,15008.934385695,15322.5401130954,15889.1482111143,16453.9108889284
,86.5,14882.0135935968,14443.4814988197,15420.9863939615,14817.9759204748,14061.2974075233,14211.5211530632,14211.9819426992,14224.7609497668,14245.2095594227,14658.0047768106,14998.951607137,15289.670216373,14955.97427479,14692.2432476817,15236.9995090729,15329.8483708967,13354.3225642573,14802.531078003,15516.8626690942,15455.8057148382,15308.5828915161,15120.3815741221,15467.9864521425,13652.6464584904,15148.7608416345,15374.339810244,15113.8741762553,15360.1925797852,14393.8050503809,15000.0937870871,14975.1910491245,15040.4561886244,15122.4484471628,14916.3300225557,15034.3719013734,14478.1483308073,13911.1296916566,14842.4590324829,14728.0344544087,14976.6597683558,12483.1636394692,14827.718714162,15762.6823659875,15486.682693577,15164.074356116,15074.8301925065,16006.3231642366,15577.2062179156,13514.4710728585,13744.2355086761,13889.1212859073,5101.5336617996,13786.2976396648,15138.3208481547,15576.5555337249,15209.348156451,15442.1067151376,14966.3690706488,15127.2207025608,14954.6488097592,12279.4938171655,13020.4611871592,13104.856251663,4674.0286019247,13732.5120170621,14583.2666772144,15883.7589182189,15784.0351024657,15279.347130598,15523.7986142644,16384.3756186234,15336.5292985505,4464.9385509825,11076.872070547,5352.23909600416,4508.28324416091,14128.4063456333,14665.7756515822,15756.3422267985,15201.6091739187,14940.2547000385,13745.1411890077,14600.6495071986,13935.105706645,4670.44557112837,7249.21252011431,4410.87719606804,4537.05832747746,14058.8079963432,14382.580728021,14522.6264065807,14991.1126237809,14735.1878524894,15064.3918717101,15607.1853538258,16169.019564665
,87,14648.4323572982,14154.1848370995,15142.0386387167,14552.94393525,13810.3849977997,13956.398644682,13871.9313989185,13862.6618938707,13885.5083726305,14396.7754855855,14726.3041825027,15085.0238505455,14673.1229235853,14401.3811660912,14946.7508220308,15054.2388615806,13108.5067958814,14536.2724040355,15253.5545511413,15171.174872846,15059.9518997451,14844.4034965627,15174.564401704,13472.2408561509,14840.9979039194,15053.5666069942,14805.7411402048,15095.7224898557,14142.639104588,14743.9257689825,14692.7964909154,14748.9459096031,14821.02521212,14618.1882758542,14673.0842554838,14160.0340997477,13604.60427105,14523.9604012488,14409.0862284849,14651.4525279461,12051.7626281291,14478.8865309233,15472.9331286545,15211.4546123872,14890.466885383,14805.4350433068,15699.7648251671,15290.2450500453,13181.5527738971,13393.9300281751,13546.8996823195,5070.67363641289,13422.2861193733,14743.0238826874,15286.311810667,14933.5260560266,15155.8064350082,14667.9107158208,14814.8657407448,14656.2208882483,11931.5863759219,12654.5697418896,12740.8263370146,4653.46330688962,13389.578400841,14249.9589049094,15602.5070265598,15506.3278649365,15012.4192301166,15181.8775822255,16060.9004623893,15040.7889571675,4449.17495430923,10695.5489034431,5250.34540256991,4494.79113762482,13858.9958389984,14368.3023121726,15452.7356641839,14905.5572740272,14641.6777178281,13396.1116287271,14206.4020898371,13584.7283215575,4636.82322736073,7074.31284927771,4400.85861154067,4476.03619805019,13790.7295418007,14111.7140901692,14246.3426588156,14710.3856895441,14446.7564798546,14793.2724713919,15308.7127679438,15862.3532769093
,87.5,14392.8939174525,13826.7177763192,14828.5478796218,14263.3779122166,13534.773416017,13672.5709230007,13478.9835475076,13450.2492051585,13466.715268075,14130.0999429461,14446.120563346,14880.5720986888,14352.2290923865,14073.6663004481,14618.3817608196,14759.0296691633,12824.6024122106,14244.1931519903,14980.036251129,14875.5234850577,14796.8036776086,14553.3022182873,14863.3739172092,13275.442192639,14489.9166932041,14687.6459227449,14452.3117214728,14809.3172943078,13866.7839824763,14465.0150091598,14391.7236654463,14436.5768854933,14492.5960950509,14300.1083441969,14287.5983325112,13817.1966797227,13254.1422603359,14158.2238752652,14043.6864876931,14268.6790323018,11453.2137132223,14027.9372392407,15166.0157813338,14918.1213861708,14594.051918661,14490.7675762019,15367.3923712449,14981.4172960429,12797.7052978254,12988.7252799433,13151.2064368317,5039.41786228974,12945.108425156,14243.5491729263,14977.6210665702,14641.5101547054,14840.6700917683,14305.2217703147,14475.9223658956,14330.7405368149,11526.8559544348,12231.6244440974,12315.6686958581,4632.10665161251,12916.3876477436,13835.20794409,15305.7898567795,15215.0216597972,14729.2868902185,14786.7260659435,15710.7229223356,14722.8642569633,4434.51042332814,10261.0641930406,5146.49225582085,4480.34212434748,13560.3241248074,14038.2487767622,15131.295806373,14592.4091252943,14322.5091096963,13015.8499055023,13780.3725907396,13204.0102513308,4601.62260954171,6863.89936903317,4392.78351458753,4431.36444032382,13492.2789206955,13817.3677631008,13950.9155611053,14409.3161470482,14123.8669159084,14479.088432758,14960.2023116043,15496.8928519383
,88,14099.0902845756,13448.1803773364,14466.6707767017,13940.7342688492,13219.6843057424,13348.3584628643,12998.1681463503,12948.9575983722,12947.4729044862,13849.0041578617,14143.7250590406,14654.248910363,13975.7046815419,13692.1140600365,14231.9452937735,14429.94492339,12460.0287651078,13905.1599420066,14689.0606191956,14564.4934161979,14508.6094679464,14226.1472639294,14512.5583949103,13027.4122854623,14073.4281368507,14256.1571558484,14029.5849210936,14485.3173119338,13546.5568333299,14143.7613618496,14064.3666637707,14098.3575398763,14114.1406948286,13949.3083024827,13862.3296565933,13437.7781072753,12842.8097467594,13722.2590682647,13607.4011273983,13769.247258128,10665.6281533754,13426.6436722555,14831.6591610661,14595.7037823096,14256.8315079066,14073.8683226179,14977.1898892998,14625.0958079954,12344.5476893973,12512.1198787708,12679.2389804295,5006.64602298515,12290.8362806205,13564.4889525001,14636.4578047419,14320.0098514389,14460.7904348211,13794.316466439,14079.2814237896,13949.0253654999,11052.1939534441,11735.1289811526,11812.910756056,4609.45460431484,12259.5146001378,13258.7264428944,14982.653738127,14899.1573037614,14415.4062685549,14300.7774719644,15307.1443246817,14360.3613498917,4420.31343661762,9773.91808749201,5030.74370746819,4464.54687107927,13216.2152895188,13653.1466375589,14784.5631795202,14258.0789380747,13968.8308066762,12584.8186790817,13298.2077658793,12769.7909841477,4564.60037018854,6617.22391992953,4384.55138035127,4402.00133763714,13126.861236619,13477.8918871541,13614.3365832901,14067.0499062091,13719.8088925108,14069.2958618756,14505.6012024224,15003.4565476174
,88.5,13726.1596182782,12983.420871814,14016.1615839271,13562.3521038177,12835.5960589752,12955.5484556995,12394.9606839507,12325.2111044507,12297.2524299134,13530.4917242088,13787.3134708409,14367.6298822416,13499.2139547389,13212.4265764715,13737.1665716029,14042.1548128434,11946.4604740618,13477.5450155726,14357.9777266461,14218.6343198553,14160.3353768324,13807.1955200634,14066.4339731446,12681.4998516073,13542.796540733,13706.8141959689,13484.0172069032,14100.3584181529,13148.3324356617,13751.8610852636,13685.948434218,13717.0863297526,13617.2806395158,13538.3224372262,13368.3756777117,12992.0164364217,12329.1069130861,13165.8276023301,13051.6866848086,13115.0040799667,9696.04847183039,12640.5112939896,14436.4007547054,14210.8440911446,13828.6771434287,13485.2543100525,14473.9411880572,14173.8166014445,11783.1180648914,11925.715537933,12089.6943584555,4971.56143416717,11443.1636577261,12661.926592488,14220.7261547635,13929.8142943766,13951.5934753187,13085.2148477577,13571.4712158508,13463.7825146645,10483.3527290534,11135.1339104396,11201.0868403969,4585.40144601617,11395.0329951311,12473.1451321973,14595.9070742363,14524.7962915067,14020.3638388292,13689.8526379551,14785.4756063233,13897.7389903112,4406.32227532346,9222.62144838835,4899.10038762851,4447.90386509287,12797.7177571282,13188.6667726532,14390.7082875507,13885.234398779,13544.3277864067,12079.760077274,12736.5876539905,12258.5125458918,4526.13167189642,6336.01599349753,4375.86485096396,4384.78579762836,12642.1304703592,13043.8881373478,13186.3511281796,13627.200418102,13156.9701756831,13449.012814379,13823.990059849,14248.207609554
,89,13165.8938061437,12329.7373667068,13374.7237918504,13086.4469413057,12337.424470882,12447.6130752864,11646.5448828885,11557.7863081758,11498.6357850443,13121.3782292754,13300.7270230466,13926.5218150155,12821.3688312644,12531.5915561282,13029.0776670329,13531.6875995143,11227.8563830762,12882.5306910108,13926.1770250961,13781.5917292191,13676.2699007627,13192.7522129461,13418.2680349811,12148.0536437084,12805.4781282313,12941.0727507545,12719.0693388464,13605.2797383734,12607.2173449238,13231.2400881331,13208.4185086986,13245.3707508793,12865.1414985534,13003.5786372789,12737.049331607,12417.1445950434,11632.6724305214,12399.8653469952,12287.2760087229,12283.8804676204,8593.83261005873,11658.7984119598,13909.7057345641,13697.1555431566,13245.9154899175,12637.0859769261,13762.284585866,13536.8623925813,11052.0774051468,11162.1231240139,11312.7865098892,4931.47355543243,10427.1348751212,11548.4927506522,13648.7932550222,13395.3447286922,13259.2140749356,12143.2810081124,12901.6584525859,12828.1816401284,9777.53595898489,10380.1994999341,10426.7382792198,4558.21632895019,10330.3645642808,11466.9674761508,14067.9550968019,14015.1097261105,13463.9462255954,12929.8672933777,14037.6235891739,13235.0110993592,4391.00088606251,8578.65110503175,4758.60792598704,4430.5664246175,12227.5952834879,12597.0034564282,13897.5205679439,13425.0971477374,12946.4679144107,11459.5442797984,12049.9728782607,11629.4673319103,4486.64257891232,6017.29319712737,4366.47126134076,4370.91679470143,11977.5995363145,12455.256070139,12579.5653060244,13001.1644024786,12385.7129550209,12543.5711792131,12845.6960379027,13180.6100332633
,89.5,12296.5012512045,11423.5469389823,12443.788820272,12439.7377811343,11648.046514033,11754.2160991525,10749.644976972,10645.3232442594,10550.1084984576,12560.9481606779,12640.4346837956,13270.8791169321,11865.4589963749,11583.7024198542,12035.7748457353,12804.7051831718,10308.9626659119,12053.4059723205,13283.9676581554,13156.2472432905,12956.2321412256,12333.3225496462,12519.0659039812,11387.4217564119,11797.0265861594,11900.8719437727,11682.0575952127,12919.0087989178,11859.299752295,12506.7760342973,12518.1266231591,12571.8792924228,11831.9799101184,12236.0285761902,11881.8663276847,11624.0691020419,10706.2592329503,11378.9566035735,11271.0909715134,11269.5950469146,7477.74141268607,10481.4555860495,13182.0679572836,12988.4713252906,12447.8316690485,11524.539440902,12800.8099394103,12663.255414187,10119.9508876863,10201.0724867992,10328.8655092165,4882.28493467742,9283.29103675634,10280.1222370162,12848.5902811865,12644.6306200206,12343.9342288979,10969.4093695787,12008.7894846572,11986.2304469954,8929.94307164575,9465.97313930286,9491.76867037693,4527.16104966419,9109.58942812111,10258.5628917018,13293.4702806778,13268.4056796749,12652.1822265185,11987.4443011442,13016.4945006957,12321.4682715236,4374.33769937514,7847.60765302861,4622.05494841086,4412.41302601101,11444.1328033438,11801.5823182847,13188.307199811,12767.7437268405,12083.9779839751,10673.7140879675,11183.0767272316,10828.0330443798,4447.33098529705,5675.3492360028,4356.33717384201,4358.75705906289,11105.5395555666,11654.4409806674,11747.9032771439,12136.8492855631,11390.8303517532,11361.6535092863,11584.0488546695,11818.9380924346
,90,11142.5817408202,10293.0811657039,11242.4068944493,11560.9506890042,10749.2917360596,10841.3458851039,9730.56251127894,9615.25963437784,9483.29259962206,11810.6228119047,11756.6943790275,12360.4527531535,10661.7040868619,10395.7706756042,10788.280001424,11825.3883152645,9235.38437450947,11004.7785353384,12375.5353214058,12310.5940153494,11988.9210646976,11230.7945456263,11372.7933294777,10407.4762041702,10551.9024133825,10623.4418114082,10414.4010226063,12007.3720709897,10918.0965302098,11563.5498269154,11568.9433328397,11642.4577001531,10550.4290444416,11236.9487197421,10828.3786325874,10630.5112086399,9588.99485822514,10144.6656969724,10045.9233831488,10089.3595769005,6473.54673693035,9218.01733306627,12214.9792728551,12049.0463701122,11417.1961563354,10202.8409413047,11613.2242716495,11566.1841166092,9030.6070670412,9090.28442204574,9185.78539640399,4825.00927658276,8117.27706548319,8936.97464673194,11797.2158888388,11651.4578664235,11223.7044052911,9633.42113087975,10910.8022433465,10958.1776226503,7989.34147451856,8442.76696700719,8448.90702988629,4493.30828776566,7887.2726380719,8936.386936649,12238.4557627301,12243.6971752478,11580.2710814378,10865.1127744349,11745.7737684145,11172.5262247376,4356.80593349741,7072.66027482467,4505.91840912174,4396.23903248125,10477.3329790477,10827.3574935598,12211.217871293,11854.8385755741,10974.6500205401,9750.45825406084,10168.4697672644,9878.05189203776,4410.04859384479,5348.87834979821,4346.08750018938,4347.93260273004,10039.5245158548,10641.3497890347,10696.1854193823,11040.9108614783,10205.8038906728,9967.47221732767,10111.0914753786,10245.6232624425
,90.5,9748.84406744679,8977.08117216058,9812.95182696584,10463.6850633237,9670.02008681081,9734.49200295103,8650.77514093711,8535.7647959792,8382.066010014,10823.5708152719,10638.917065976,11180.67849131,9259.55669777849,9019.08835824714,9344.0833807184,10621.7260568402,8090.51105816492,9778.05515205941,11209.3833220903,11239.9039655921,10789.9014584054,9922.94156618041,10020.2791835299,9248.86764260055,9133.06496855891,9171.32842982996,8983.03301560705,10892.4648715231,9819.36008566284,10431.4468837696,10383.1452224329,10477.6310349435,9083.58784074042,10033.4705192405,9611.49298147977,9467.9459499004,8334.78478214382,8763.13543187176,8677.98562992418,8864.63268353257,5649.33353679243,7980.95002811931,11005.8575202344,10874.1032525565,10178.2900791007,8789.69842452102,10261.9742623866,10296.7844089685,7844.71473103425,7888.92003822839,7951.51934664808,4761.63075346359,7066.84540006999,7681.53874443344,10515.1645050483,10430.2254228304,9954.9730801279,8312.51300562463,9662.5311953286,9778.68069336823,7007.6987764219,7368.73263323383,7356.79075567895,4457.35770656594,6789.56122461034,7665.01950197801,10925.6075960885,10961.5133613838,10279.9920407719,9638.75654379113,10282.2782248746,9836.6512529556,4338.95559675997,6290.57382773628,4416.71494789555,4382.70079322462,9351.92908870901,9710.34382580903,10984.1677801454,10700.2214817468,9657.08413328274,8729.88203831762,9064.4670540215,8832.13627755163,4374.32555120875,5044.42978244492,4335.50317251304,4337.99594512198,8849.68924628415,9447.81312924216,9465.57864538655,9753.91235979386,8922.13593713838,8473.02017651304,8548.8286503694,8610.33259744734
,91,8212.82961800144,7568.72185823306,8256.41371262313,9199.42115476842,8480.96141912691,8499.74569906158,7594.36292489892,7489.63845195279,7326.2379503163,9644.78304587124,9351.47899508291,9804.15702746807,7772.05125715066,7566.01329051359,7825.78543320766,9251.19060239241,7009.48579324123,8457.48337569484,9827.44344461356,9966.86157778332,9418.58735037371,8524.08421855745,8576.73799133563,8010.59588724302,7663.93003070613,7673.95862876628,7521.02220859771,9618.66308133408,8630.28279099309,9162.68731369028,9023.17808451112,9129.120524629,7583.19782001498,8685.11254596337,8297.69376423715,8200.49346700984,7053.21719311836,7361.1905199225,7293.19260853189,7689.4986398645,5036.773374501,6862.23941799308,9622.37166219809,9531.84439857787,8839.08771053534,7432.92430437345,8861.81354267381,8951.31878866828,6666.86112238204,6704.73079700347,6740.29444777763,4694.92596223158,6196.5229628871,6626.05392843259,9094.19995593717,9062.06035010472,8655.73575487406,7124.58786482157,8369.61517722061,8538.39911260826,6066.60873160037,6336.89923953284,6313.82703322539,4420.97512834753,5890.20706669804,6565.34297014408,9435.389039636,9494.80681662929,8854.96102076865,8394.21091440086,8760.64005411382,8429.93341283228,4320.97149679705,5556.81704497372,4353.73737571306,4371.34269742227,8121.82208627798,8496.87051781577,9562.01155896018,9347.4199355643,8219.37455671735,7660.06419872737,7919.89013046608,7738.25070745761,4340.06497931284,4768.81086538756,4325.44062555363,4328.28841064836,7647.54428313238,8179.9577474884,8163.34756088592,8388.83138922732,7695.3182750917,7115.82160343364,7146.3814893118,7190.4051021719
,91.5,6769.11654887482,6309.0248043689,6806.91863596732,7871.06180587819,7287.66329499803,7248.73904540352,6633.24124224402,6546.63860709417,6384.32892495409,8387.22330035809,8050.83440606038,8408.48813431545,6433.01609313901,6272.97822437517,6475.44434760947,7852.63875813649,6118.96724585456,7212.75350212842,8354.7094747569,8597.95066772425,8030.82422460711,7249.63405168451,7264.93182453021,6885.74400796656,6363.3525168025,6366.08483486212,6256.66837282617,8289.13615704736,7488.33278702821,7884.80870409007,7610.74848959221,7712.35854840606,6338.5581144507,7337.13065647265,7046.30663477683,6970.40536689216,5938.51839914859,6151.56860906293,6105.902227491,6636.41567649809,4644.18320809591,5924.89290583948,8219.48629525642,8166.90813004105,7538.34462380598,6327.18436791244,7613.05517580768,7715.83136779866,5663.64393006313,5714.70993088213,5733.42774765921,4631.49354492896,5524.56416087904,5805.26623033541,7710.44551562515,7713.29851611694,7450.18751890256,6162.18154027604,7146.68601962485,7346.44364302268,5294.29062177549,5493.47198722955,5473.11985553097,4388.68537291394,5219.18975247729,5698.93882256761,7933.29856078605,8005.27585687937,7477.16206912241,7210.27562551555,7412.09933761436,7162.0977707642,4304.23468106711,4969.27357766041,4312.0166484171,4361.75126705146,6957.69924427614,7301.37397194435,8071.33730370246,7911.49455568052,6882.07721435055,6638.80518614514,6841.35464413916,6695.94931067083,4307.05484623789,4546.77106151782,4316.19256979303,4318.69012632706,6567.57824381869,6973.89101919131,6970.89090433124,7134.60021935767,6640.01840747408,6061.1877102078,6063.8821646411,6108.32719027023
,92,5668.98451191004,5364.20102047217,5699.90412800089,6648.27813344594,6265.56802848583,6154.73942408882,5824.2603729512,5758.31799572156,5614.97409761594,7178.52402801583,6836.12062142878,7114.14232053325,5430.81179142453,5309.37691302011,5470.67499185763,6632.73899748255,5435.76263318321,6200.23100337979,7021.53315717562,7337.69995497778,6836.18301390532,6214.13995010144,6203.28378946713,5972.72440956095,5402.59055052511,5405.42711670986,5333.56873391572,7084.31790303237,6534.71419195363,6767.484283991,6386.53088464136,6465.61290237644,5422.84698359728,6225.99254258329,6048.1271667609,5974.86606555103,5124.66627689232,5271.07386256668,5244.48072718145,5764.41587412091,4413.93629179756,5252.03752685857,6955.65554000812,6928.72141777838,6418.93516368161,5515.66228277129,6613.87456005775,6709.27882333675,4942.45704697287,5007.88048132289,5017.66658169837,4580.56292632246,5052.54286423063,5219.40496131961,6526.31325448757,6545.21107274605,6444.90156688691,5463.06833948062,6144.12712986432,6340.46568498565,4751.11484359897,4898.76106454211,4884.34065463234,4362.78186759873,4784.69809636153,5087.77008657355,6645.20676040243,6716.42215812962,6349.05303376733,6201.88463496095,6349.10026011405,6154.62700968637,4288.93914306388,4563.84700220577,4284.66419021526,4354.13565978514,6005.77950944358,6301.73822657318,6760.40136663577,6631.44699206621,5843.91722745401,5797.36472371094,5964.51042909315,5839.06482998682,4275.01396340538,4387.48707996344,4307.32539754826,4308.82319251455,5692.66393580733,5968.00206785434,6001.62750795728,6114.77157287908,5815.2709795192,5321.89126576456,5311.44264884476,5370.41712340991
,92.5,4913.34549772481,4725.30906424308,4939.64368277067,5696.37727194072,5488.75168981151,5329.84317449926,5216.02260803249,5170.21491555482,5062.82329640395,6120.01726361097,5841.28094187166,6046.00328708322,4757.35557657483,4666.77253700964,4802.31664088102,5700.95392927259,4950.12871283737,5439.06378938141,5971.22201058686,6284.38851813211,5893.26327101898,5452.87220102852,5426.17930798202,5300.46898028289,4768.39519731688,4775.90999719802,4732.60487222003,6114.32665272561,5792.82847888095,5884.52467219166,5473.19801766052,5528.7771948583,4825.89498287162,5392.75891554981,5309.4980223908,5232.93105724973,4592.56129507397,4699.3325368014,4687.24205177111,5155.70604241566,4281.11213607953,4815.01053891439,5946.12112476557,5928.95626069336,5560.28986868405,4983.56968418804,5881.16858335018,5955.78160690068,4479.66144173485,4557.7727609107,4566.08417176223,4542.32032679922,4745.84738245385,4853.37579172999,5630.41624599665,5646.62661517784,5665.5886028975,5017.6303487168,5403.48920329759,5554.85078102562,4408.88273648482,4523.59074828133,4517.31408640633,4342.58874337744,4525.21366776022,4712.30212924138,5681.15735727805,5744.30180866527,5521.90190616549,5458.19142140842,5589.21401280372,5430.96345361236,4275.08009925764,4312.40302425678,4263.54503022455,4347.16330706585,5274.54192563505,5519.37264563595,5765.6292970182,5651.76938178804,5110.33699106702,5153.87110849444,5304.06213191979,5192.19742116519,4245.2084078484,4270.64617814357,4298.75085638013,4299.3796777099,5061.83088124104,5212.17049369208,5292.22111063738,5369.08534173541,5232.29727100619,4871.9307287717,4859.37564888237,4940.75387308968
,93,4477.26379265325,4369.69082073509,4501.96840143879,5029.03429298201,4955.27581031294,4772.36562912539,4806.46207525705,4775.69090271512,4699.72965579387,5343.09022396533,5142.49682742324,5299.03973811101,4384.5858279678,4315.99920028607,4437.94657163979,5056.96880799638,4638.63131894723,4923.54689278919,5220.57273444874,5476.88285511067,5218.17784011991,4964.92367080443,4931.59765213327,4870.5726511603,4424.31052569501,4440.90169511068,4415.68549126961,5394.61384992623,5260.30388532199,5245.25462749248,4865.9488291783,4897.47968410808,4516.17394806349,4837.11667395,4827.4482751428,4742.6364612583,4309.82569701172,4398.11518257882,4396.07084724531,4760.15830082557,4206.48719895715,4554.20760955168,5241.29046759036,5223.698774927,4985.51489008359,4680.61814726175,5395.50439169509,5443.77068841514,4238.67680752659,4328.19413514919,4338.75982093748,4516.21292967883,4541.81026445209,4633.68253883814,5040.40331872674,5042.57372258904,5125.28493609163,4741.93971282182,4914.2530320771,5016.23468181241,4235.07663127391,4332.41233554647,4336.86331505262,4328.4230367304,4375.52881021327,4499.95504040381,5041.46244945913,5092.01667953294,4988.73375551117,4958.2288035896,5113.80738213584,4974.37127942687,4262.31171808577,4187.7108473254,4246.41692310708,4340.24431142715,4776.20063442876,4961.67508962274,5088.8058148273,4976.69316469095,4668.06344856577,4706.64344340952,4845.00311183969,4744.54428649992,4220.53730262191,4195.16380224482,4290.9486758026,4290.69633937728,4657.43822309231,4722.31143458881,4838.61715151981,4894.76713934086,4861.97443218189,4655.62919229008,4646.52698049003,4744.5377743816
,93.5,4307.55921625186,4243.94792445595,4330.88337657201,4624.42914591487,4629.33824176616,4450.56090944271,4551.54959393213,4531.24207592992,4481.25587873187,4832.65771942164,4711.7215181555,4840.59915986295,4249.1334580779,4194.09568485775,4309.36971229516,4678.9762669795,4446.26325767886,4626.43547648557,4761.30659822887,4938.34734323755,4803.1538478829,4698.34915135414,4670.04032539918,4640.69102182078,4301.97646286458,4328.79331142154,4309.24995308964,4921.29587723394,4913.49314118272,4841.43225865764,4531.69940678978,4543.88497326101,4413.14193304046,4540.8095270948,4580.19469547789,4483.45880509932,4214.54258328315,4296.96293901764,4300.34895627582,4525.66749374444,4164.44880451799,4417.59516245973,4818.74312047123,4789.48820396863,4648.24434080795,4533.41957239379,5102.39041498531,5127.07118354255,4159.77573109287,4257.25922292223,4270.16866826928,4499.98040922581,4402.05623335575,4499.74255811656,4713.13105219789,4696.83022821793,4790.5651352299,4573.45521685622,4632.70374254543,4690.91169741385,4180.17526012623,4270.63518260126,4284.61739306407,4319.08152416286,4291.96895732288,4384.00718117546,4687.65881084408,4725.33179211969,4701.44719519044,4655.46848921023,4860.85149942651,4729.94704252426,4250.60237214797,4153.67176169832,4232.98337225399,4333.52086619331,4502.94925206895,4630.68790866611,4706.66366422044,4590.08696947449,4472.39061367779,4446.69262685856,4579.47449773635,4486.20082733156,4200.97649149783,4155.57903328969,4283.20337248975,4282.67871186422,4433.15045868925,4450.39487741696,4593.47148130006,4641.00260187013,4638.31011499734,4552.27028677957,4547.01567056867,4642.6453494844
,94,4281.73888448706,4219.86007500851,4302.45574438861,4430.30529319733,4458.1387822554,4306.13869925249,4409.46950593298,4394.71693876834,4366.46705668541,4531.23098239741,4470.20720213866,4583.51682398192,4226.5636858751,4175.27105987761,4288.60447569031,4502.57064116484,4310.04587221609,4468.77932411964,4539.67797019438,4639.98459918729,4585.68911053635,4547.56331982823,4529.71300308365,4514.33229759996,4283.18147589865,4312.71155382891,4290.43534474054,4656.28110713154,4690.76106571208,4617.40424417254,4404.41571410277,4406.51755563238,4368.83261440836,4427.43960732283,4481.31658164515,4378.37743670354,4201.15364718,4280.70094595403,4283.52597033705,4409.52310620989,4131.87801234498,4364.76092209203,4599.24169513557,4553.48441473258,4477.31147077959,4441.99255474354,4903.14201314641,4915.03789097681,4149.45461743928,4245.99205789879,4259.8816238979,4490.64348950655,4306.59088043174,4421.91437924205,4557.76645966391,4524.71468809814,4597.57736172329,4465.06313605803,4498.65152168214,4521.23707042497,4169.76211715864,4255.5097539262,4273.58831682255,4312.17199347932,4249.90577030805,4324.30925118901,4535.16444018509,4562.90170340801,4573.38044403138,4505.69546671611,4714.12270808643,4592.93196584817,4239.22329537075,4151.01631067607,4223.0199331767,4326.55307280838,4365.54556500721,4467.00490928507,4553.15507401327,4432.17361608366,4407.30070391916,4321.9028067094,4450.53231991704,4364.2647807744,4185.747448026,4135.31740228607,4276.32847090898,4275.31173111907,4318.16122344831,4325.72623053699,4465.30788052335,4511.86603376561,4503.67994026812,4476.500226977,4475.98123394996,4569.19255396848
,94.5,4268.7407798147,4203.60447674176,4288.3564789089,4344.10974104266,4341.49891053228,4237.08235693257,4334.82931317569,4324.27595294204,4308.38761310945,4361.14966921484,4353.56522641389,4457.93305902046,4213.31599027301,4164.81397406287,4276.6464794702,4399.99362632415,4198.39969317494,4342.19600553473,4411.84661598227,4420.79120955852,4420.13978164912,4436.83572042013,4431.13495450969,4424.23654322192,4271.71181350847,4303.00269410819,4277.44249459598,4471.88985414608,4498.99483056719,4455.72969602409,4354.18245027165,4354.74183587157,4335.95565710349,4357.47985287348,4413.89556654703,4308.86036707738,4192.26098082955,4269.40124857725,4271.2308082277,4368.06893836905,4101.9504576437,4334.93712686,4482.32149546781,4420.56904133263,4382.693376862,4370.1570613052,4733.68461679562,4734.75931680773,4142.48879465234,4237.65595133653,4252.25175798371,4482.4247684804,4233.12047559695,4374.17713763479,4478.4399502856,4429.87198819295,4461.1159775856,4381.15242717302,4415.48104846799,4416.39717796025,4161.65359101179,4242.70723269202,4265.4421973975,4305.91172448013,4224.69738758515,4294.92160810427,4457.56466256545,4478.09960474096,4488.10513795313,4434.10827668075,4598.14615694078,4485.75017053003,4228.07981208498,4149.85189645274,4215.42075508329,4319.65582275214,4266.13057201645,4348.65929479262,4486.85075341218,4364.87983757588,4363.40906187481,4238.94223105154,4361.51451353457,4285.438784021,4174.44001266592,4119.79472478595,4269.59695229994,4268.56882882037,4251.43504558494,4261.38394687768,4379.39342047305,4428.57306012316,4403.89284827704,4409.75234509773,4414.90413864744,4505.62099762586
,95,4260.74943676795,4191.15708497174,4280.25334154528,4302.49874658737,4252.31871345522,4197.61330211113,4295.57831526224,4286.35634481572,4273.4929614817,4293.881270863,4311.27106120007,4410.63673977747,4202.63896382478,4158.0384219613,4269.53280186289,4355.17403136839,4145.72880532709,4289.67432610178,4360.3994343284,4363.37883805056,4363.79310306776,4374.43768292088,4384.83924331163,4381.38270825709,4262.37642948821,4295.35717633978,4267.02944395491,4387.47777567085,4365.80578604138,4381.55201847629,4322.23108888543,4324.95062516547,4315.57070228242,4341.99213184935,4401.91709222148,4290.93679012806,4185.24878660898,4260.85297121959,4259.67842781317,4343.53341846141,4079.11607261169,4312.11200762472,4441.59634741464,4365.77703420606,4347.61558445093,4323.63706390169,4598.43144202484,4586.888397754,4136.5921113565,4230.95466482394,4246.95880557952,4475.97662954624,4178.59205052687,4345.29429916558,4443.31325257185,4386.01017999694,4424.76563473411,4320.07679386577,4383.52525796238,4384.29808941053,4153.94009655691,4234.5520471542,4259.77064852646,4300.77134927349,4205.9039916692,4279.772192428,4410.98506940251,4427.32165016749,4437.06853473921,4391.30535236569,4524.74129628326,4413.08830056998,4217.01473277946,4149.81194568624,4211.45931632884,4311.54826846639,4237.85831503794,4322.67270275467,4461.41501693542,4340.49338017576,4339.54955389278,4223.94296423459,4342.81314402037,4270.973307535,4165.48719000388,4112.77456351449,4265.03553539068,4262.2676085439,4233.60148891229,4249.77427743746,4338.36419617462,4388.47640360615,4363.83520307834,4356.48107419246,4368.20101093258,4459.85463900538
