,Temperature,A1,A2,A3,A4,A5,A6,A7,A8,A9,A10,A11,A12,B1,B2,B3,B4,B5,B6,B7,B8,B9,B10,B11,B12,C1,C2,C3,C4,C5,C6,C7,C8,C9,C10,C11,C12,D1,D2,D3,D4,D5,D6,D7,D8,D9,D10,D11,D12,E1,E2,E3,E4,E5,E6,E7,E8,E9,E10,E11,E12,F1,F2,F3,F4,F5,F6,F7,F8,F9,F10,F11,F12,G1,G2,G3,G4,G5,G6,G7,G8,G9,G10,G11,G12,H1,H2,H3,H4,H5,H6,H7,H8,H9,H10,H11,H12
,65,2.14333221459492,31.7896509565694,-1.38927885073008,-18.4670812544719,21.7695213622837,-14.7319623069043,-69.9913993261225,-70.201833312341,-69.9081694394995,-0.171409990810389,-47.2709321636044,-59.4442833921153,46.0071950853835,57.827117800779,59.6902898820199,-25.1874780994917,32.4785113868029,-77.1022453786718,-41.1315389431902,-111.530566258803,-29.4861400433238,-0.796832633491704,-47.7181768023779,-59.605401180901,41.8859000663942,71.560812327888,55.4350892351395,-114.226713007706,24.2965002470091,-24.3945698204916,18.8221638555488,24.6855164208951,46.3641118085011,44.1586669411372,-12.9950792322252,-14.940323659865,59.4864910512824,72.6832035307348,69.5630377377847,-75.688039524995,-5.28905576804573,-72.4173060366802,-76.5740690920265,-50.7261076196078,-42.5686254075272,39.4680170367351,-55.4605943646247,-74.1066823278352,88.5929263342532,86.4635926169963,108.505207688036,91.435413968353,5.7324041524912,-39.4070936182898,-168.652100258937,-104.544709202689,-96.1998986995382,0.506322893831111,-88.8187168199747,-91.5334301590051,113.076594813542,105.728174610815,83.9489807483437,118.220811645725,-10.3387432971258,-65.3269130284393,-33.5967569040877,-36.1769951597707,-37.292579024815,-63.6075228665404,-46.6695278546799,-43.3723594305816,107.201953873695,124.446492546014,122.8976932742,119.337838220926,59.2221696232727,28.8803272018267,63.7625342842475,41.9147336525584,40.6623795368714,-9.14999885672523,-23.674134032568,-41.9931033279358,118.726857321473,152.913888610835,123.518114274291,130.226654710525,-0.354367177294989,-15.9845343959896,-11.320860645109,-34.7009932072319,-17.3412838499012,45.3628617560871,-4.92692321426739,-22.6492988241325
,65.5,4.64388646495354,68.8775770725665,-3.01010417658654,-40.012009384689,47.167296284947,-31.919251664955,-151.64803187327,-152.103972176742,-151.467700452247,-0.37138831342827,-102.420353021141,-128.795947349579,99.6822560183277,125.29208856836,129.328961411044,-54.5728692155717,70.3701080047454,-167.054864987121,-89.1183343769121,-241.649560227404,-63.8866367605369,-1.72647070589665,-103.389383071823,-129.14503589195,90.7527834771849,155.048426710426,120.109360009468,-247.491211516697,52.642417201851,-52.8549012777307,40.7813550203614,53.4852855786044,100.455575585086,95.6771117057951,-28.1560050031499,-32.3707012630425,128.887397277776,157.480274316594,150.719915098536,-163.990752304161,-11.4596208307694,-156.904163079469,-165.910483032721,-109.906566509151,-92.2320217163146,85.514036912924,-120.164621123351,-160.564478376976,191.951340390884,187.337784003488,235.094616657409,198.110063598099,12.4202089970659,-85.3820361729622,-365.412883894362,-226.513536605832,-208.433113848999,1.0970329366346,-192.440553109947,-198.322432011177,244.999288762673,229.077711656768,181.889458288077,256.145091899072,-22.4006104771101,-141.541644894951,-72.7929732921921,-78.3834895128366,-80.8005878870972,-137.81629954417,-101.117310351812,-93.9734454329273,232.270900059671,269.634067183033,266.278335427435,258.565316145341,128.314700850424,62.5740422706231,138.152157615864,90.8152562472142,88.1018223298838,-19.824997522901,-51.2939570705639,-90.9850572105256,257.241524196525,331.313425323477,267.622580927628,282.157751872804,-0.767795550807932,-34.6331578579775,-24.5285313977365,-75.1854852823349,-37.5727816747885,98.2862004715221,-10.6750002975809,-49.0734807856147
,66,4.28666442918802,63.5793019131384,-2.77855770146789,-36.9341625089437,43.5390427245666,-29.4639246138008,-139.982798652252,-140.403666624685,-139.816338878997,-0.342819981626235,-94.5418643272074,-118.888566784223,92.0143901707602,115.654235601563,119.380579764037,-50.374956198993,64.9570227736112,-154.204490757346,-82.2630778863841,-223.061132517604,-58.9722800866493,-1.59366526698523,-95.4363536047631,-119.2108023618,83.7718001327858,143.121624655781,110.870178470281,-228.453426015409,48.5930004940128,-48.7891396409855,37.6443277111025,49.3710328417887,92.7282236169985,88.3173338822721,-25.9901584644463,-29.8806473197315,118.972982102563,145.366407061479,139.126075475575,-151.376079049995,-10.5781115360983,-144.834612073353,-153.148138184046,-101.452215239216,-85.1372508150594,78.9360340734715,-110.921188729244,-148.213364655667,177.185852668508,172.927185233985,217.01041537607,182.870827936705,11.4648083049874,-78.8141872365804,-337.304200517873,-209.089418405383,-192.399797399079,1.01264578765904,-177.637433639951,-183.066860318009,226.153189627079,211.456349221636,167.89796149669,236.441623291453,-20.6774865942593,-130.653826056878,-67.1935138081776,-72.3539903195415,-74.5851580496314,-127.21504573308,-93.339055709368,-86.7447188611604,214.403907747386,248.89298509203,245.795386548403,238.675676441853,118.444339246549,57.7606544036557,127.525068568486,83.8294673051209,81.3247590737351,-18.2999977134436,-47.3482680651359,-83.9862066558699,237.453714642946,305.827777221667,247.036228548575,260.453309421048,-0.708734354591797,-31.9690687919792,-22.6417212902147,-69.4019864144666,-34.6825676998083,90.725723512171,-9.85384642853614,-45.2985976482596
,66.5,4.28666442917847,63.5793019131347,-2.77855770140013,-36.9341625089351,43.5390427245138,-29.4639246137845,-139.982798652263,-140.403666624649,-139.816338878954,-0.342819981632147,-94.541864327226,-118.888566784216,92.0143901707474,115.654235601549,119.380579764077,-50.3749561990007,64.9570227735649,-154.204490757309,-82.2630778864414,-223.061132517566,-58.972280086608,-1.59366526699159,-95.4363536047904,-119.210802361824,83.7718001328335,143.121624655772,110.870178470268,-228.453426015374,48.5930004940165,-48.7891396409836,37.6443277110961,49.3710328418392,92.7282236169845,88.3173338822339,-25.9901584643999,-29.8806473197301,118.972982102553,145.366407061506,139.126075475585,-151.376079050013,-10.5781115361515,-144.834612073383,-153.148138183996,-101.452215239181,-85.1372508150025,78.9360340734315,-110.921188729252,-148.213364655655,177.185852668555,172.927185233964,217.010415376022,182.870827936704,11.4648083049824,-78.8141872366004,-337.304200517837,-209.089418405361,-192.399797399115,1.01264578760083,-177.637433639941,-183.066860317987,226.153189627075,211.456349221663,167.897961496729,236.441623291451,-20.6774865942434,-130.653826056917,-67.1935138082358,-72.3539903195156,-74.5851580496301,-127.215045733037,-93.339055709399,-86.7447188612014,214.403907747375,248.892985092015,245.795386548405,238.675676441871,118.444339246551,57.7606544036371,127.525068568462,83.8294673051264,81.3247590737392,-18.2999977134955,-47.3482680651255,-83.9862066559035,237.453714642948,305.827777221681,247.036228548596,260.45330942103,-0.708734354584976,-31.9690687919806,-22.6417212902124,-69.4019864145102,-34.6825676998187,90.7257235121888,-9.85384642858116,-45.298597648316
,67,4.2866644292385,63.5793019131638,-2.77855770192082,-36.9341625090042,43.5390427249231,-29.4639246139404,-139.982798652158,-140.403666624913,-139.816338879311,-0.342819981568027,-94.5418643270605,-118.888566784311,92.0143901708907,115.654235601658,119.380579763751,-50.3749561989052,64.9570227739191,-154.20449075758,-82.2630778859843,-223.061132517898,-58.9722800869554,-1.59366526694157,-95.4363536045344,-119.210802361615,83.7718001324943,143.121624655863,110.870178470372,-228.453426015658,48.5930004940283,-48.7891396409777,37.6443277111462,49.3710328414227,92.7282236170922,88.3173338825727,-25.9901584647973,-29.880647319741,118.97298210262,145.366407061264,139.126075475477,-151.37607904985,-10.5781115357013,-144.834612073164,-153.148138184421,-101.452215239464,-85.1372508154564,78.936034073769,-110.921188729227,-148.213364655761,177.185852668177,172.927185234169,217.010415376395,182.870827936708,11.4648083049815,-78.8141872364404,-337.304200518121,-209.089418405513,-192.399797398804,1.01264578808741,-177.637433640034,-183.066860318172,226.153189627133,211.456349221427,167.897961496405,236.441623291446,-20.677486594333,-130.653826056608,-67.1935138077238,-72.3539903197097,-74.5851580496419,-127.215045733366,-93.3390557091138,-86.7447188608785,214.403907747489,248.892985092151,245.795386548369,238.675676441722,118.444339246538,57.7606544037653,127.525068568667,83.8294673050532,81.3247590737278,-18.2999977131149,-47.3482680652055,-83.9862066556393,237.453714642933,305.827777221612,247.036228548465,260.453309421173,-0.708734354652279,-31.9690687919733,-22.6417212902256,-69.4019864141655,-34.68256769971,90.7257235120514,-9.85384642822464,-45.2985976478817
,67.5,3.97547005773777,64.8957951650996,-1.78210181255054,-37.2311279217165,41.3371384996422,-30.3913433044477,-141.042742599363,-140.766143682118,-140.828954167359,-0.690299225229865,-95.0020089935711,-120.513855655852,90.9215354405815,117.974407055861,120.815171299382,-50.7564266657905,62.7661691731541,-153.572449361387,-81.8438190185561,-224.579010764964,-59.0467282468348,-1.32190947362687,-96.1848354982121,-121.169292054254,85.2752086583164,145.018696942165,112.82998790273,-228.030343987239,47.4713376090695,-50.6859982546598,36.367799223583,49.3658108829113,94.073993970851,87.176121404103,-26.6979329414535,-31.6240628582423,121.363387332875,145.665003283788,140.830318845101,-152.097899443977,-13.1981057521298,-145.827830427204,-155.415435877798,-102.023809916909,-85.2227742302521,79.4442244242041,-110.811085502124,-147.973627955152,179.971335165883,175.463134961188,219.696227863999,175.642986670115,9.31528860431899,-80.551378872126,-336.565792886408,-210.714597798463,-192.855470685231,1.60583178358047,-178.187561345297,-184.234222468942,227.62002389874,212.863789034118,169.329414327136,228.569428508425,-22.7806046094979,-132.195489246158,-67.8082460385895,-72.3678301560803,-75.3462264862251,-128.907936587219,-94.2225806023107,-87.0122676686715,206.701499542841,249.083095723654,239.942713870587,230.53526278318,117.56767030334,57.2362827528059,127.820636057469,84.8800170389977,82.7890938552027,-21.3601791336973,-47.810061026014,-87.1679921959221,230.778850725066,302.043769030362,239.607564666997,251.671838262439,-2.45154689253695,-32.9160054034874,-21.7548183956387,-71.7616025730676,-36.3308466562862,91.1518638786815,-9.30439747614719,-47.0897348551862
,68,3.52296866447614,54.9844079266832,-10.9404919491171,-35.4468260938106,55.0104612693999,-24.7185781085395,-134.470149799789,-138.403075103281,-134.975956465787,1.21972203341238,-93.8803164552833,-112.071178442362,96.5206292294697,102.832492560368,110.965889689329,-48.5973634541469,76.8510913805362,-158.758964169254,-84.9350870016965,-218.000868339816,-58.8741808197938,-2.9819361778973,-92.7636054575987,-110.374109821901,75.2111900728059,132.284502867018,101.59337431002,-235.762927947552,54.8443066241816,-40.0430933534662,42.8895915529179,48.4108000686406,85.1922037111485,94.5423986514493,-24.2796245022237,-22.0975993704296,105.195641802402,142.354805598774,129.181204027421,-147.839267314578,3.12070569389016,-140.512435197784,-142.708323255126,-99.0673991064823,-85.6066594130834,76.0769299552294,-112.645805370616,-150.503331840965,162.536077570672,159.123083068123,202.718353097706,219.066644129005,23.1437161014637,-70.7767592710429,-345.735730997457,-202.043596259107,-191.611154444249,-2.62305709067414,-176.436109163424,-178.520071346975,219.032411615108,204.012999146231,159.571139939101,276.177604701418,-9.29017059527405,-123.265832665489,-65.6062089395741,-72.9890942162992,-71.5796815141757,-118.821695085137,-89.7689092265919,-86.6282448580182,252.982552832335,247.91389211936,275.985668234993,279.403823067251,123.60136630026,59.6054647342221,125.417429287892,77.1665105213447,72.1076051579053,-1.56815033139355,-45.6683940134276,-68.5747076854218,271.184163934686,325.718982889164,284.370850223491,305.001732749567,8.66739245097233,-27.0094558093865,-27.5285692142352,-58.5601350409493,-26.1339968518182,88.8054116077265,-13.7569029810475,-38.2075378144473
,68.5,19.3990428873526,46.8531578083121,-6.39132329733866,-32.8737797436866,81.4309946890066,-14.4264445753656,-123.208983008218,-136.501782540466,-121.414044102986,6.10457993648697,-79.0033800378642,-84.4777708355073,114.557315717665,77.7530076779158,98.1735086354943,-44.7415037296637,99.5975129116591,-163.480286122277,-88.8077115867613,-186.236565390008,-58.0012575813485,-7.66104911626644,-78.3055448919231,-80.5328403507833,60.0632443725949,113.400707952503,71.1272482315362,-211.859198804409,64.776992275139,-12.2698197780664,64.5861580141277,51.8413954553434,71.3132304859828,105.300441857463,-6.38870902977033,4.62294088004683,82.3822962672098,146.013468231997,113.708473825652,-139.805139665131,33.7885556113911,-124.724153050989,-109.803534522974,-90.0099971291147,-80.6665449909483,70.2911495776252,-109.824002209483,-147.788732932549,128.748578016949,130.314818229908,171.444076680287,312.915223682611,45.4679352259809,-45.6157049403369,-330.551633389823,-176.333205076633,-178.437852783261,-7.73097386523523,-162.441794370113,-157.800106191541,196.625990339852,186.814724844887,145.512600685218,376.686341687307,12.2235202772586,-102.70877540876,-50.3711991886107,-70.8194542191341,-58.7995069374147,-96.5974899440489,-75.3260875647393,-77.7434966701198,353.001984154396,244.56185339838,346.702583701137,385.522876365892,130.236826815496,69.7678407697881,124.011023756731,69.5640423599957,62.474778556908,29.3874672123743,-37.7471854183568,-25.2455640689577,356.278240749208,369.498450225293,379.966238376252,415.73788724218,27.0595460149902,-17.0927146711451,-37.8748150189845,-23.7791401345066,-7.59837813227796,81.0640460298537,-15.1546807201271,-4.9657530422428
,69,64.5205380545267,74.0662389909312,30.7795573019175,-22.8185293009178,98.6206310324301,0.388643575564402,-107.303863588666,-126.785136180411,-102.48369490515,15.6555712226082,-48.3583046297213,-41.0102279918988,151.223178263725,77.041566164889,104.63513775222,-28.766174950892,114.05110562421,-124.345819285065,-77.2245716291009,-117.892562409309,-44.2660025634418,-4.08258248368566,-47.5325026651481,-37.4861325507127,67.1918511630774,119.550699807255,49.3843901053297,-140.879308374957,74.1773348554038,27.1902219038898,104.159923390042,78.2482211962019,70.7107471295362,116.873306893731,37.145839313288,45.0944779330339,91.0198992170672,169.742796405073,121.174982280996,-121.52721642206,56.2511130920234,-100.701642317149,-60.6952653237759,-71.9199984451152,-60.3651406683489,72.9820763221414,-81.2609792950602,-134.378526799854,113.55663667632,127.470758504857,156.820937828399,397.642705432908,59.2788806727772,-9.96843192218603,-257.071542187923,-132.516307388956,-145.727385432602,0.0596730385736919,-123.71337309343,-115.668435076158,186.811502959056,181.551330793549,155.649253860185,464.855058382951,29.6411962312918,-72.8770397760677,-15.3052740706221,-49.9815999690918,-29.4422110605828,-75.9808670180873,-42.878447796284,-48.7771528305357,444.076150657382,247.657892573928,404.33937519659,481.511441255343,130.136676515477,92.506453866873,134.602270254255,87.9149127977012,78.6838551601663,47.6322791323346,-15.1784083719062,24.9398059189125,429.968038913501,399.771408650447,466.379224782366,511.796484720291,40.4620846570197,-3.54848985694252,-35.5521221979457,26.3975169822193,13.4054525225429,77.3462074458134,-1.6442276772982,47.7066961853006
,69.5,130.091034216823,131.870310215817,85.6000126496469,2.14471216199763,110.20617595673,32.7631699488556,-73.4160675311459,-90.413628418074,-66.5582125630094,34.944130309887,-1.2084221115374,19.7425822566988,202.815576071935,104.217713961516,133.861018314165,10.0453578578681,130.989081496016,-49.3134912019418,-39.9150882962376,-18.6895779888264,-12.7038101822418,17.5908016415715,8.4653176610127,21.1000110272116,81.5736532429673,157.737897204073,57.0846484895173,-49.2910301123056,91.9522825808385,80.3263189500099,160.578598247455,133.031078827216,91.7091806416561,142.239338393701,111.619587457181,108.732164952262,132.982982336703,215.267712183399,150.427297883503,-78.2231234601104,76.9191048281878,-55.9151242406215,11.8578655008491,-32.071725810898,-19.2851575840828,95.2557712224116,-21.1079396634318,-103.51695299126,127.095678218189,156.953891741255,169.668689577367,482.705921267744,73.8949636329589,44.6378492600461,-155.419698747956,-69.0364023627558,-88.278177740528,32.1213301446551,-50.4638562383757,-46.9410830026013,202.271748763529,195.499841301457,199.78472006032,545.279832224443,51.9397579063493,-25.7885322376492,41.3177276961933,-2.47904053438515,23.0699033285018,-42.2839496901079,16.1768160502643,2.36823779709584,526.783601773394,265.756885852762,458.604913968766,567.649199539401,139.82513412407,133.560213370483,167.514322889668,132.984466406494,124.606166521833,77.8325891754384,34.2985511487841,85.3527872792006,496.091776037527,428.632161075833,548.414152930903,597.344458014633,60.5884068417008,24.1357264358298,-10.2063616442183,89.3442672462165,48.945812354943,89.6758805807217,31.7443467527723,109.677301138327
,70,209.636591083679,204.754921892911,163.378432954259,44.9895409402052,126.634226948981,85.3890268640498,-21.6324966592256,-31.750276862183,-8.71033372614374,72.1745148480968,66.5494787903908,95.5579949195435,259.011071366539,157.354566694434,184.58730674805,66.737607481291,152.494584500238,33.2536874281618,21.7650304197145,88.8433155646358,39.777349807197,57.8561644404754,88.0855629427119,85.1971807609516,103.080621223687,222.34890257096,94.2707219866088,60.6346738039188,117.555757535392,139.92684684455,222.852722930094,206.985935749969,143.07056390723,185.238574310298,201.135406268152,183.753324055741,200.205911529976,277.128660492282,204.057365008204,-11.4338147157082,103.972597400086,8.66663401603955,89.9674727007286,32.7948938034274,39.9485981042822,134.369409673761,62.9712664408821,-44.7292635160998,171.351739492637,218.97783492522,215.552752762588,553.401475858403,93.6374729729928,109.181401600466,-41.3964869043625,2.73187398068239,-6.93054022810793,85.0036425515041,41.7140892836064,34.7168073655098,239.9357953166,229.915585847108,266.536819279378,604.092415827702,77.5893551790937,37.1545520629088,110.948061050725,67.1879108647686,92.0069460878162,14.4202399472456,94.4974718615072,74.0669279993776,588.419847561878,301.464734825698,501.105981277181,629.699034130483,162.50968638361,190.708662894358,222.028144462117,198.168373909915,193.123816833515,118.740900318066,108.059235322045,151.766340384184,544.056742631721,455.834584603589,613.176276994293,657.05694459173,88.1603979909523,68.6323015294224,40.7817930470155,154.964884622825,95.1463501922713,119.185796578372,89.5655963642785,178.004738473849
,70.5,290.45394547715,285.287128439158,250.375134945752,105.890689813054,153.153884754457,150.439119684999,42.4287646916955,37.6066648711944,60.6881227440699,122.224070459929,140.012167267922,172.967996150791,315.348092641349,228.697897877826,245.137333017353,131.760190216538,177.408750366627,127.919155223331,99.7778070553532,186.742914108774,112.669384285073,114.648929979044,173.734741107816,150.088393042956,146.520674727984,297.841363743526,145.310848858036,171.535508488585,155.713694640704,203.231622587519,282.580453653342,283.095413990718,215.170677445381,241.311138255794,289.074928335088,253.301946088692,279.206028856636,342.075238827085,272.430988829121,62.0086891145115,136.615657894448,79.4037582215728,160.722189426888,110.455936664755,108.485087097096,185.965534039144,156.287676924467,23.4102813577911,239.352113886468,299.134606969912,281.420427044098,586.684630961832,125.584242322883,177.752729224452,77.1960053436992,75.1710807334521,82.469580399777,147.521495317826,129.364677102381,112.009278786621,294.302754916449,278.932685311584,340.637953611308,626.581981931959,113.546693871196,105.951148895684,184.361850403328,146.272549754535,167.904587093673,82.7836174715908,173.234479359526,156.441243618764,617.783334150597,351.323446279529,522.474113584413,652.424985873827,196.352247550542,258.301300862868,284.343636122745,273.274424152652,270.182304471192,169.466008460786,193.298743936785,221.510652194907,563.714415823785,480.140557454865,648.681575711297,677.711912005939,124.449124794393,127.424450335181,109.939761509907,219.602621729338,146.699266436359,164.383051402679,163.736647283655,248.177751637833
,71,356.563496004469,359.557850799073,324.006815956727,176.744238101726,186.903382049341,215.437063748177,111.814444973905,112.073428103603,132.233785113446,175.972399947816,206.223182591948,239.97114242503,363.486570407294,303.894140222729,303.136175222417,198.580078654603,206.915293053597,216.251871891614,179.349049727893,267.245628437529,189.973313182883,182.051605615402,251.677446136181,208.630313731612,196.298938615471,371.671677585666,228.39505317912,257.939987006045,205.901373398017,257.992398694263,332.469268957161,352.913764096276,291.401798176905,301.24078440805,369.205619468963,316.894523997242,354.023643866764,400.880506585216,337.655566973176,134.771450030393,170.809581434508,150.362511358953,207.802312947277,183.440987413282,180.184394900086,242.313840232523,244.374310298561,86.7517467830144,315.218089593316,376.703117382369,353.296014730724,579.668376893785,165.837523361713,245.437122634283,176.735764860455,140.529829261955,163.954042153123,214.264718261431,209.536535553927,181.945174676883,356.473024673693,333.607556870732,412.585072294236,609.790937062613,159.641858408422,171.623991326161,254.873595336545,225.292767663062,243.083072806531,152.407621455689,244.310425803052,233.505866923543,607.928914386411,404.428787262875,520.68872527528,631.39078404921,243.289211684571,325.074539998569,343.984042191151,342.102485630957,344.005573043278,230.435118017196,274.791046512197,285.052453027004,552.067668035643,496.855348394685,652.288531968146,657.798682853753,173.702474023185,191.741087066021,184.451305529968,276.920620719715,203.674425066217,222.144676743173,238.759415611942,305.279421833918
,71.5,405.23325660841,413.105527021248,384.752012412851,245.747073231207,227.632907297162,276.514561889788,181.329400623274,185.915680291177,198.003465598437,231.950055594387,263.919063357545,295.823974933508,399.176902755452,370.704843413595,351.675044651786,260.594927798832,240.008799641324,280.863643833093,250.942141167116,326.045957783192,257.89784368854,244.240037219204,319.293928134209,252.070332877619,239.345825538765,435.044966658225,330.178037873939,320.657356949862,254.658852685036,297.971028483656,354.729015191652,411.417678606849,361.326935337529,358.467058942954,433.57882206134,367.320981282147,412.83307554469,449.26898325178,394.613866336561,205.552902209003,206.099246959064,216.176171676149,227.070236958586,249.423877281574,248.373084860189,294.847155118681,321.219982476055,169.088815818225,383.98264504806,443.245410184183,421.715323341547,539.951559670198,210.95955528225,302.204338549684,247.788321177173,178.118495238405,235.44844206171,274.782760078852,277.457879260925,238.05468259105,416.808330490113,386.393550845062,470.218261244218,557.775694676109,203.356700488035,230.421928568366,314.134253164856,295.358775589598,304.315396553141,219.953055676943,310.249072047896,297.137938878184,560.633701353237,451.643507194924,498.222679208748,572.929652467627,296.713531726956,379.854973033201,398.197036772014,397.789080511057,403.92344133543,289.546553115531,346.060574782438,334.058417231108,513.061201873311,502.0786179871,628.538354004983,604.029822121763,228.687493902223,254.48371916223,257.242456134459,322.330401777811,260.072456933273,282.321237794209,306.663531064705,348.809291400732
,72,436.726200764792,444.406335395042,432.440785678301,307.598967899005,271.504526471751,330.43507073246,240.968240404773,245.236961043271,258.257660511489,284.092189536317,310.379528433986,339.602678092623,427.003324056664,421.769836144117,369.940632015886,312.952806967722,271.928877805872,326.724106887946,310.328377350619,360.115255420966,317.398202001234,296.286281122398,370.101417594555,281.63618109855,305.632748883273,480.725325679099,407.980231802607,370.070623337601,296.699309519052,328.233303045344,355.2383872672,452.504131796137,418.206825086945,406.856542697944,473.824440066743,399.014050104885,452.76661882332,483.890876781183,442.38476716574,262.800309217488,237.512818679478,266.985845791312,234.497147112929,306.259783368976,304.996512309579,341.30584461659,376.776939880853,256.409163826409,439.134464827698,495.595948596317,476.965889098029,475.742582031814,257.913520574709,343.868029389719,303.134505307278,194.03398513451,294.374549559808,322.461543521321,325.881576281481,275.885646881954,466.8763638917,430.696997453098,509.856385932296,480.708531110643,242.372824859916,276.916365999082,360.598942712809,350.314982881918,349.135006175394,276.744409399396,361.506119411364,346.02237384738,486.642194993318,486.31250007466,460.571660628297,489.316286075534,342.515390548213,423.037778183688,442.609821725464,441.947738815474,446.335677134866,336.160860620694,402.851157924501,368.859951899713,453.376070608549,498.123156115393,588.021774631329,526.165622473489,277.669796951705,310.225045254414,317.840538997897,357.506523396532,304.620688280739,332.553623661861,363.413832605374,384.238002299697
,72.5,451.548636223853,461.683153741893,464.04439451672,360.533982010472,311.076944084825,368.175364355277,286.617290774644,291.178927633458,307.652548090084,325.765591797544,338.976140195461,364.171126626266,445.549868248707,456.548020772798,362.402211002508,356.558697765498,298.138192629077,362.81667497293,358.274819392507,362.64151987315,364.478673423897,342.059297624773,398.52114161251,301.87818183743,382.782587644695,507.824928578523,465.603647659242,402.113623227874,336.797940522944,348.24581959735,350.426815480255,477.459051036708,458.175504004957,443.339498391712,498.478429037054,417.72075015748,474.230302328744,503.666026221196,475.554172988992,305.191108618621,263.420699622738,301.668008781342,236.542226596289,345.326425846356,345.99200022852,375.428370601533,409.983175218223,318.342925389811,476.691242752083,526.385780501243,511.447529185745,401.459330904641,297.286728330072,373.131424154361,344.462284857442,207.645723443558,331.96876472545,357.620262219677,360.213789164635,303.540893014158,501.00777694729,465.190378098794,531.191728281113,395.780987038278,279.13151307816,308.778156668415,393.510599612137,390.522947428147,382.44783229515,317.84184715035,396.708702440773,375.280144727902,401.01867666322,507.95571013667,418.351883677556,397.863760102275,381.680173113479,454.038838589856,475.067711569931,475.273395229417,473.713181726045,374.254199350267,440.511620610703,391.829811182628,385.405863842676,486.754027262441,542.849121332155,438.838241626688,321.112488013878,353.015477103575,359.779238094055,381.407904758404,339.680197007034,372.434783786797,404.457769796067,405.824509570752
,73,458.179766560925,470.567125984252,483.745663423393,397.179648442974,341.686795437049,392.761481974102,321.867543377253,330.763404957658,341.256967487052,357.104199587157,353.594084209987,374.890730707676,453.335084328163,477.576179899823,350.914880141047,390.15531803004,316.078013419074,386.005915841428,393.195230599843,348.291850389037,392.22063913176,377.834771206828,414.542024909427,314.735701878108,432.107852715735,523.173872479781,510.534734944697,424.074537995479,366.982053019957,356.781878541336,341.329985665747,490.732182369991,481.534997066464,470.260081938899,514.283136190456,432.575134289295,486.71001271462,513.161181658602,496.215024208966,339.230548878185,282.680300086993,327.738504469623,235.382192942413,369.749506417739,377.459630141284,398.379807398444,432.843395206166,364.962607614317,498.338316966242,537.313931487936,531.594263459238,334.725745972766,327.240144905409,394.723016332059,375.114155096892,216.545608202015,357.497948246602,379.263707339376,387.902035629875,324.439876641856,520.325194076023,492.222282917384,540.348535132503,316.95420514662,305.083619871702,332.534616023708,416.700956891083,419.42025429495,403.67016952844,346.339658500681,424.850833835594,394.115433585292,316.934706453205,520.376164877419,379.038902310467,313.139454404445,416.439762667022,472.853693955658,499.037130677026,495.523740700232,491.680103248832,406.501094979828,466.570434776843,407.356759252724,322.142097799309,470.1861427058,504.7211064035,357.5414985461,357.496485246569,385.114899354334,388.256147597022,397.680164635372,370.228456604038,404.984874724333,431.108983117539,416.805839596881
,73.5,460.36090610709,473.383109438171,494.224283566718,420.12017587167,365.762954419419,410.574289785464,350.668950281255,361.91085235194,363.368374865825,380.843346112391,365.057209707543,385.652349100754,459.2890963492,491.006930138532,335.999591554965,414.218453715518,328.576165570558,405.334919755946,418.808577764592,331.106104782604,410.772118914158,401.133629714091,429.409327502707,322.653538216188,469.649242091499,531.966440858262,530.432855113361,440.835178894223,385.181919480413,364.383810352346,334.263615026106,499.892198695416,492.983503940339,487.183021819321,519.378004187877,439.011560146977,494.132902461979,517.166270664752,510.400240094052,366.187259253764,298.013536941248,346.357324268657,263.365691897421,391.564258047256,402.348690110694,415.480770881346,449.485254858486,406.249868805024,510.280794860515,544.01727216782,541.375989730282,281.277488694282,352.219775109103,407.539272962272,399.571951231081,223.270779420987,381.037586807689,390.120114450713,406.934260441518,341.164329340511,528.244844236804,511.958362953134,543.657966144907,250.294028971463,321.621446158494,353.50464190802,435.19983030455,441.313855265795,416.736921830204,365.64420245735,447.873223034799,408.961773314842,245.385391132506,524.634925545221,345.729675286642,242.504690581622,440.227251510779,484.74340910893,513.849733869929,509.173923153603,501.563593892578,427.209024642805,487.825785590017,417.46354118512,268.749653016095,452.068931651295,481.427117645384,290.621089344053,380.566303719528,409.905593960365,410.130613312263,409.18719420013,390.969704686808,427.757374499477,447.837900886079,426.422633006155
,74,459.397642680797,471.5429300737,499.06070008606,434.80217896654,385.082638036931,417.429635879834,369.604871666248,381.017144049183,380.477713481114,398.652239766018,375.264791500575,393.260091521973,462.647011719509,498.734393359861,320.817664353597,432.777189768526,336.624298545348,419.946011245352,439.855091568381,312.253930191559,427.447830181037,420.845605986891,438.893938100092,332.670617001841,501.553406641115,534.466456666123,531.462387941419,451.032032995322,400.237732243079,356.457976664495,354.948843507708,503.418192758635,502.193244615137,495.771393953118,523.00119498787,439.646984804959,496.412582702314,517.687218876361,518.77559282251,380.237274696586,313.139169597736,358.220281342531,320.567110289539,406.947282473138,416.613967405849,426.968589093887,455.270721701769,427.559010537835,515.484913243894,547.458544515612,544.850420572929,239.257692221578,369.687832254597,416.722460840494,414.383333587529,257.246135777639,397.301745466689,396.921644910301,423.235323947729,355.967364234067,526.820681552058,523.469179479718,543.195087097377,198.900792931474,337.86475143283,368.978071601142,448.732839458708,455.538220778808,427.718846204021,380.777276425265,458.467041199807,418.438875770516,190.806135909911,523.932180996326,319.805977995487,187.748507424821,456.910420269673,493.300786218003,522.863210676522,518.858161151096,508.152785207858,441.190537987425,500.390096342222,423.241347549143,226.805840791837,435.603838550647,472.332948948338,236.890442941935,395.323496662037,428.557304945164,422.986197075495,417.464446793654,402.58199224094,442.118283353854,458.624088033633,433.742739265925
,74.5,461.634436445719,469.712511187188,503.795126372224,443.37272097911,398.963335560719,417.995222142319,381.47832185558,398.254790768044,392.22803246545,408.541943392137,380.889921369491,397.971451505815,460.924836120227,503.684212762012,343.486348930429,447.150471426881,339.117156367015,428.452309839597,455.805797095508,300.288221884929,438.468132613035,435.547730383287,443.657126966016,340.944716945717,510.499113728436,533.508386051325,533.004655465098,455.6606689341,414.06585699466,330.119482659792,397.214363247514,503.176850592216,508.375967264224,500.328481229098,527.157443219375,442.722744654992,497.207925897537,516.114336402551,520.841057345798,390.966934741041,328.986530904922,369.307504028201,371.018333529621,414.887048299324,425.090308024372,433.607489794163,458.2013047952,430.836551915742,515.747879505071,544.344186845753,544.448191790436,205.200528680068,380.714199995939,426.36124677497,423.645372599478,309.236838102251,405.638858102929,400.481435819531,434.99605682858,364.912664957186,522.711715273744,530.379245415165,540.182233573402,161.178845523659,352.968205740974,381.338083933024,456.303810793445,464.420617457415,436.384713859828,391.216112751153,464.245325022628,426.61889195227,149.680378424727,523.264588794489,298.985931361912,145.867305929252,468.947050330514,496.541652809174,528.092525828118,523.403002513044,514.190447285117,452.533422889987,505.007707378601,429.639931935326,196.703596283566,420.456763147148,469.656583238769,195.928771388414,409.248836784813,441.438139643986,430.880432521958,423.7333447667,413.630028563734,454.76620397659,462.476703322212,437.902964062319
,75,466.276263908103,464.024946227986,504.166070890407,446.680982323897,409.799381398219,421.266464675695,394.178626075825,413.276810578226,396.744542300227,415.273296030762,385.604480576573,406.551640740439,459.08164139895,506.963127641285,393.035136253739,452.421188472429,338.891836263406,434.889904039176,463.55081694333,324.085210261471,444.341679561902,441.365436400339,452.782954066941,346.775057890368,503.354824359894,531.994376003227,532.014070111178,460.426730847934,419.720733878904,309.696784641076,431.435092500119,502.918992296911,508.701290456701,499.143320697484,528.045335068839,442.968227685703,497.269209246817,514.797502820645,519.776807938746,400.289164293469,341.30572748111,381.081054815703,412.603242614301,423.839254143631,435.471086643617,437.491440574877,464.304533437302,437.483265912815,514.618272444033,540.935211267787,540.77122050161,177.252140983586,391.345699321172,433.691832854611,432.88485545636,350.430243657702,416.436379911464,402.551981516339,440.419463335739,355.706311291793,518.146958525803,533.225025346111,539.077309741005,131.675302303609,365.798624619062,393.422973492087,462.454767702928,471.334579957959,440.593290233599,397.790806533083,469.398942282198,435.887344212619,118.810555528089,521.925804776802,280.123050507966,112.737612324537,475.04589373135,497.011920892423,529.120153763864,522.813491538829,516.567309187196,460.509059453544,508.881340355681,435.981856157683,175.731782915729,406.913062021437,467.095569526125,166.408854200443,420.331360988176,448.801413140956,441.31791264012,432.190091539421,424.258334699795,463.612341691668,460.760809448029,442.877940396176
,75.5,466.394900019261,456.244286213152,504.191839172111,449.115797015304,419.172425565967,422.994477925738,403.634665675002,416.778421041344,400.455732738365,423.918396873168,396.281314283562,420.726396006634,458.5155207221,506.459294982668,429.85076980401,454.122071114653,328.750903409992,438.656657969999,467.556239662223,373.391714859274,451.145284603237,447.541068857445,460.644878771338,352.728070519079,502.668081072632,528.382244405191,528.393465863027,464.135481538293,423.23026830288,296.631656505993,461.953481986576,505.115855656132,509.832012276147,495.426306793277,527.707950983993,437.734901688733,496.124400592835,513.750017992337,516.854143730508,404.040259346671,354.406340617504,390.163405523824,447.813188661622,432.605549250641,444.289479911163,436.032926303405,466.179588479867,444.426657425164,511.637332118863,539.117349467296,537.527588642101,153.268337127422,399.91851842504,437.773941115715,439.330423893685,387.372484306673,427.066487831034,404.743849543248,446.111339961175,336.484318422132,512.697691344974,530.881130506244,538.124306084469,108.609226750972,378.598659211015,404.419143931839,469.344149692379,476.407731685003,443.229073631565,404.167992123456,468.917616502656,441.186241281491,96.9123653149837,517.864580792426,263.636024108813,86.1137928493415,477.151832083743,498.194947074684,528.650854566471,521.220257049745,515.181643664718,462.002604518826,509.903427527566,436.301077286381,160.132773894088,395.332644342368,456.941097256468,143.202447212071,428.275917628202,452.789475487684,450.459412180794,440.988186666045,428.701629893353,468.252992070787,460.459638212574,444.531626131261
,76,467.688283752128,447.545739127736,507.955228417981,451.589939356435,425.769818598335,424.518570834401,408.682838513489,419.497476857061,408.000278454308,429.493778409746,405.468818287048,430.951740280907,455.180867799811,504.081452795776,463.810182286218,455.86929781524,310.224581899048,439.826898923816,470.988226311769,416.841515745148,458.215703246224,455.125131542392,460.88653263291,360.521124828398,503.12405236447,524.352726353119,522.621062839606,464.077036529517,428.308594387166,280.553603237021,489.925643468011,505.311124240315,511.877375425558,494.398118004352,528.57662844742,436.892265105818,493.647260777923,512.139459873757,513.134323597555,409.647380404773,366.267726803568,399.466899935751,467.248812733138,438.411251633485,447.894674617946,434.62046793216,469.415934965992,446.821271690627,508.048675697276,535.303832116426,534.577607749901,133.206795499932,405.514683350282,443.277781286411,444.338261845444,420.021524841761,431.163045196504,408.197440677415,455.075314143569,318.214359577294,509.750244749088,528.190246314969,535.735375702726,91.5704452487935,390.788901910806,411.362890649788,473.58539636564,477.093234183592,444.215874500728,410.994560837916,468.832349461799,443.555618219481,81.0264763719919,513.479318907626,250.115282693139,65.9683456468853,477.24101096943,497.735405908842,531.17558654575,521.378102537271,513.410809763627,460.969216798156,506.76479392994,434.565117964787,149.62374889627,386.084865298159,430.517233686089,124.26890943338,435.318661406521,454.544920008253,454.17837142392,447.833371597697,432.392314434487,470.319680298284,462.840173298689,443.802909352301
,76.5,470.87776373269,426.712126642753,508.308087694464,453.341584933694,427.430194128282,430.363144113959,410.404000451655,427.192161991414,414.802612061613,430.464451014828,408.086205174819,435.675093468269,450.161612977913,500.064017269051,495.575909749136,454.46000548872,295.358199060754,437.800054376251,471.795444305698,453.682922951105,462.823137569604,457.455953519545,461.192705320587,364.511558744617,499.131969838036,521.605629589993,516.708155489797,463.780993667054,430.224333760235,296.680127092925,500.385094556034,504.369717730633,510.098272193301,492.216907500939,525.231488057318,437.001143794533,490.759586001629,509.918869394878,510.50657318911,420.276160622348,372.417109126965,408.429936428199,469.810249808984,444.074526826542,452.09057225031,434.640657250489,475.879434130613,446.724099703023,506.587597203446,530.422945006948,529.638912004596,118.573928095524,409.509543142126,446.819389256968,453.961419484965,436.449588821091,435.75425360034,412.110610630043,457.43174784465,300.129389158663,508.653726957359,526.933129650562,535.72828555207,79.5215303849022,400.475231204806,415.018237367969,475.864206459887,476.505529434157,445.550991012518,416.401768078457,474.201106611949,447.530406062975,67.5606514676438,509.624289933379,238.646511511347,51.9204931318118,474.208970656415,496.013573314827,532.173843395045,519.958532460941,512.195284527818,462.224513448596,505.416131352129,433.608798398913,142.985849058183,377.853139693356,385.614931367718,111.039361824913,440.453529545472,455.699356670131,457.840930128723,453.85426692929,439.503458463652,469.217337566858,463.104003234409,443.685480995487
,77,467.56454765577,401.177298002534,503.904497345553,453.790114014943,424.958877261214,432.910712903932,414.480326737116,430.423687843596,414.473569138049,433.845993942625,410.705055441582,440.605569917931,445.627289968002,495.666844223346,502.827632108166,450.936733229052,282.339365813461,436.995410870563,470.331461013517,483.226139520958,461.215039232709,458.683279199873,464.2586335699,363.649602714283,493.89179882479,518.097639181238,511.836949591348,464.398797294324,428.147398025973,344.25934656696,495.668250223888,506.35562779786,506.55483506994,488.329756497473,520.423231770266,431.621407780364,486.622714776281,506.509934254457,507.358129793719,427.245353076419,376.966709743641,415.062632350371,469.161266433166,450.110963797912,455.993781212039,432.204804531793,479.060765319019,447.325872315824,505.198432536513,526.059744609457,524.102528698548,108.272425648046,411.051862286005,448.046828240018,461.279963804772,441.786937913995,443.891138776964,415.574758217788,455.931301936158,287.241925682091,504.797058671787,524.69130805632,533.563485939243,71.4040222764381,407.685341768768,418.171985162681,477.800266979889,476.276735509667,449.393797728043,421.291735009858,477.048426117849,450.038724095914,59.3125805351137,504.967844378008,229.147797994878,43.0685150284002,474.052572597724,494.782885307605,529.288036499627,516.443005758475,508.810497060903,464.301256905349,507.200826767371,431.442097362194,137.272779050372,369.877051859262,328.288785909896,101.065106301418,441.942213329888,456.461370116432,461.353763972075,456.495426487846,443.756331010047,466.368511917427,465.049089234118,440.148023431239
,77.5,463.480146629678,384.635842222767,499.457808109369,452.693106069547,421.596013295345,430.117066879643,417.785155636789,427.43342250054,417.615814695972,437.923877345337,410.162538010131,444.777270646455,440.183416375384,492.023071533947,492.932287650863,451.384425646352,275.017722484944,436.729313248544,469.567522752955,495.247030026314,458.425461758613,463.669481794559,464.946928789264,364.736638988437,490.723676286973,515.414238038561,506.881455163167,462.575607333461,426.728172021192,380.995739501295,491.812336355553,507.219718169217,505.431613578954,490.297048872118,518.395558766283,429.871657157542,485.119294173251,503.555730211288,504.162925604037,432.440995072423,381.253625902129,420.716005811439,472.821855105348,453.927834290002,456.061752077625,432.694938412116,480.694759416142,446.772391134586,503.359302083566,521.265190996241,521.435823577157,101.387702438589,412.607581234051,451.589124778236,465.137649197997,446.502370430796,447.27396391226,418.47724400245,460.592833452623,303.762373689605,502.986088893975,520.820043043945,528.068683020446,66.1457967917729,413.779835631081,421.977331944491,479.264168821921,475.714127104799,454.6249022211,425.151885653142,475.486457021477,450.159789886699,58.2461165422899,499.670944495143,222.393007829312,38.2313358841307,475.15369824036,493.619620748549,526.874926087231,515.213471404986,505.790047634791,464.279219986234,508.130958470567,423.540605318577,131.058093536777,362.668768415905,265.650256323429,93.3347805357261,442.221587073548,458.793442666219,459.447587766394,458.121929161358,445.038878198539,464.12258749677,470.362764966873,433.425145569563
,78,464.373243659058,368.990602201489,494.126483302772,450.823557959572,418.99129194839,428.140377270403,418.005094477125,429.44914833947,422.628874600619,436.550848158454,403.52873453145,444.302973450565,435.002795717595,488.182808940848,490.247719044309,451.572688761574,292.178952368047,435.841443594828,469.953189215089,491.465863765675,459.127284450742,463.551351601031,463.167563470506,365.272510767016,485.343151613529,514.462249880671,501.432562356345,459.892108977279,425.027789755687,409.960654394061,489.43213358659,504.453162045229,504.064753878947,492.06124338883,519.860798453817,417.863520107408,482.694482557576,500.98063662308,501.539405095032,440.594783650473,383.422183911332,426.315145962678,480.732182746484,457.406311888755,454.380502718136,437.023212771543,484.407321254331,447.925797521494,500.929764042887,518.012320802573,517.378057187331,97.3727529455252,414.125775720884,455.15706102394,470.079937314536,451.171865076641,447.697533146048,425.17199904986,463.656114714125,342.334487290527,501.156542212631,517.809686523778,523.994647721722,62.5756147090925,418.08933277263,425.126224229721,477.9974079401,474.323418130654,458.00638994349,429.094436962685,478.991976297028,449.940547179572,61.4946337597373,494.690029386868,217.273689306777,36.3916319963427,472.064863927589,490.969482950187,525.771522049692,514.709309648107,506.850977679445,464.459202279396,508.397814254828,402.404849454088,124.04583459837,355.293062506848,205.367070431338,88.1854652680845,442.229457832693,460.885728644053,457.012140797331,457.955207973239,446.887236980395,463.164287521314,470.829135067173,430.130454202569
,78.5,462.304797001343,356.92505719661,485.085873796245,446.874486090511,414.977320639015,424.684344251177,417.519729643067,431.564411006091,420.98866525495,437.94483809441,398.714083550661,443.97332157064,432.143901740662,483.721897425481,486.988176644478,450.989430537659,325.366112898835,434.46964029067,468.076115747109,489.683182788572,455.557131622723,458.221161908185,463.056839334682,363.173906607134,477.526102010961,512.283795732523,497.336250243827,459.051981553247,420.859628015851,438.234568867837,486.735713674142,502.444452004486,501.971722846755,490.386256982112,521.933079515412,391.750613103763,478.500929928727,497.140482686666,499.227486873179,445.457956972319,386.007974702535,430.332598743498,483.586989798877,457.783782563478,454.241875640966,436.979272093565,484.746537274816,449.135380839023,497.501576569916,515.526769648872,512.277290984287,94.0512649369073,414.776129738869,457.542473245564,474.062453854714,456.369540260954,452.532857523533,430.661190952316,463.973003677419,375.858596398996,495.98943118481,513.082101759802,520.212728893212,59.7018524447894,419.490883393735,429.191868438542,475.183324543512,474.383114534826,460.314571918394,432.369536167226,481.834272432996,450.666847085168,66.6631556026183,490.4622248739,212.363154903631,35.4740255034858,469.874009345714,489.558858806663,524.684233624912,511.785506528224,509.512853541491,465.581345297021,511.665961607261,373.624374764932,114.652447257316,347.127410354621,156.492172135075,83.7906189365173,441.795719751293,460.812230316832,458.091988038293,458.183409610417,448.55172802514,462.486302931858,468.27816085205,427.900065806424
,79,456.773849982504,373.817575567335,478.324663867851,443.636279676444,411.329770189213,419.438570602312,420.535814555747,429.816978872298,419.522213307037,444.33031779315,396.843739179838,447.532895891248,430.205369054587,482.543829120467,482.080946966985,451.927528728119,351.038937909506,435.324898864341,467.938620253924,490.624546652325,449.5120483744,456.284354364388,461.540435158171,362.581721770141,474.311044290152,509.052772423151,492.730713223426,457.805983863856,417.686410076572,448.715202213753,484.433046194625,501.798968996123,500.450314311836,490.969537063413,521.569906440631,368.709430832226,477.319621899819,493.435977896942,495.413816427194,447.485402342916,390.652082112706,435.017437391337,483.407368563348,457.412442845733,455.381892241011,436.868032478746,483.852194204767,448.646674057971,494.019469747095,512.934694773603,508.248660750909,90.3348162850427,417.76981899795,462.04589564957,474.52610956253,458.70005454104,455.282019187082,432.453559306857,469.359085940725,406.542519122343,491.586109651709,507.092960577243,514.320267346376,56.8524811930513,420.691374288474,436.498770438456,474.33819271829,475.804760642539,461.680023490966,433.258511953916,478.293262926314,449.47611920869,74.5996157412454,486.238282590309,207.156082064416,33.8062858575234,470.605272301258,488.527348416254,523.401315565764,510.90382665103,509.68426774399,466.015654223576,515.489112291988,348.719936651807,102.838317345698,339.820660607431,123.129282037971,80.1127157379061,441.408593269996,458.868414191243,460.06462905157,458.096545435448,447.633568329296,463.287556501974,467.15477530288,422.271487780067
,79.5,455.051607037234,406.704942064574,475.892873452523,443.490599318313,412.549840134686,418.806510145037,421.818506275826,430.816977266795,424.219560771229,449.406377137677,394.17227652288,449.659045888529,426.43222690116,481.308190362265,479.623957523423,450.142422265302,374.665919202823,434.253915563579,469.622957379744,493.020043440538,451.881929283888,457.622438694429,457.881950514726,366.711048473024,471.599116687823,506.723825864892,486.572769214532,455.377628474447,417.558786634089,440.93859027372,484.435028311289,497.601942027577,500.0549927266,493.020275506119,524.268269390641,349.608124042344,477.768148009777,490.381580700084,492.062514032882,451.014922364624,394.019617229499,440.118650992434,487.195247674792,459.84746285293,455.837193854746,438.877495220099,486.041824379225,450.394897321801,491.269204686543,510.85037957651,503.98967324366,87.1886687004989,423.085336941353,466.246301343085,475.034981913208,459.035118995221,454.175618237504,433.724326437036,478.964053429502,435.645872991638,487.349039203511,502.48490416121,509.367091839682,53.9560145503384,422.333444342353,443.449527002994,474.259760822428,477.568169632019,460.344343146758,436.054572493289,475.686696723728,447.716231049322,81.6927690621486,481.950200968295,203.187123081045,32.1752208339124,467.053465192881,487.551142590077,525.405459753445,512.05003259513,509.842696944792,467.35267546433,517.781247640694,326.142821427329,91.7993291147519,332.752620214487,102.89815205096,77.8106780875734,440.381190870726,457.257553002702,461.011542027231,458.558284168329,447.056419234291,465.569557140527,466.346817231468,415.327492034888
,80,454.549643118622,433.484899220824,473.888979467607,444.771580034883,413.93746921811,420.277902354127,419.601449762392,438.120871587497,424.703353412533,450.636777863561,392.726262076175,451.235031801325,422.87382311002,477.75145107693,477.371896189635,447.634365562374,395.396733331335,432.251541070203,471.43325923709,493.830307807511,454.352803231288,454.491979258284,454.497435176304,366.966825818669,467.07125296829,502.184408904715,481.700213950637,453.862911510836,419.364624206009,437.335323993487,487.317225503599,494.633973119746,499.069342109446,490.171122100594,525.635300140271,331.162203082975,474.716373910961,485.634714003662,488.928197330902,455.485070154064,398.844954934539,445.357993219398,488.746511990145,461.368331595166,455.300323878879,438.380079521638,488.783798746029,450.997061648532,488.90254178566,507.828483284812,499.285843435444,84.2863311630774,425.957007707702,467.288995688307,478.061655990834,460.650504266685,456.90263422969,435.689769217269,483.429305653173,452.328283018205,481.216197230835,499.768671810985,504.98439200833,51.7634333862387,421.633005513635,448.968742753896,473.390445180103,478.422474361447,456.839366641598,442.341986012451,477.295042796251,447.921187881757,82.4606571136508,478.792491062371,199.644652298585,30.88871043206,463.324493707429,488.056327856236,529.146341207312,511.896748150512,511.313678851095,469.588405086349,519.978886058989,315.549546600739,83.1344495254319,325.044700603808,92.3589391660819,76.0090339392813,439.483684155942,456.624399601788,463.885503120945,459.727795779374,448.046465806341,467.33792076866,465.074844614776,410.913175400966
,80.5,451.109138814535,458.336484622022,470.477351588589,445.497614039491,413.691567338436,419.755932852837,421.373391105424,445.64603157734,426.405891263356,454.634513764237,379.097124001346,453.165746581365,418.65671280624,475.966474405167,472.078323856565,448.232049258968,404.539304950257,431.939323170413,472.967066820687,492.871983342178,451.052704932021,448.657589455578,455.126972430571,366.16438502823,465.58021510647,497.240102475746,478.36981648836,452.914301805748,422.067949093886,437.547572685642,489.714536170933,496.033169807044,495.216489862918,485.664841001128,523.485845926168,341.901020575975,470.922009772798,480.927789481506,484.678557932317,458.840216921389,405.271677903279,451.932947326728,487.521981158595,459.549371764639,456.837753392746,438.651369027594,491.017392921523,450.205095515293,486.157449161635,503.06945645646,495.486755807736,81.6048135198005,428.174524429232,468.24590650652,482.840612734632,463.023375738899,460.738047623092,436.719328829107,488.356315816471,458.572478238681,476.456733279759,496.453752154838,500.049445636388,50.0680804143691,423.401367227674,453.971415502109,475.248593914005,479.379425124992,456.440368591296,446.633431530156,476.428561697507,450.050122436631,76.5922767589436,475.596692545161,194.978325334835,29.9794895385559,465.14635584478,487.594998193631,529.55336505727,511.325573209646,509.284752666824,472.809124633062,522.606292090923,339.539697901167,75.839886828742,318.508474863913,89.6958615525426,74.8208088844941,439.177303664137,456.162838374471,464.767631365557,460.917561220007,450.067699252723,464.642557039187,466.017859728693,388.918743936414
,81,447.878088897359,480.558727003072,467.229334429248,449.678534691026,416.39014860527,421.485636862857,425.735316265722,451.339728743267,435.345556057783,458.4996254797,356.083086224832,454.280271380686,411.077390541182,474.79423772564,468.478180293168,449.290138826794,405.273504139911,432.588551911654,476.752042858681,492.842143464287,451.330227722484,447.666210104878,458.60404221973,366.333648997113,465.555519637143,493.140294616072,474.58774079781,452.394488597097,424.801931035437,438.839362455736,490.337048847501,496.417853290709,493.547822383114,484.346097464765,523.258760470392,376.6928955943,468.824900012736,478.697482805457,480.501052415186,462.965415749007,409.860162223072,458.047292087765,487.842592503998,461.117224569812,458.452793481221,441.538119554052,492.033626013527,451.457812417453,482.867108837426,498.707752929392,492.238718004883,79.1641991740875,431.155099957682,470.035062272023,487.65678136584,465.075645766744,462.187883115885,437.191587331329,496.956534133866,467.567745981018,471.872345039315,493.370479993962,496.260573702627,48.9199150844075,428.776485396531,457.371508852849,477.592372304647,480.289880910486,458.729069854261,449.977042159574,476.405657111925,450.353269330569,66.2037953431907,471.762911084066,190.52061917675,29.3419509298859,464.361185493898,486.24568458098,527.540135041387,511.306648575938,505.075959906125,478.227571049363,523.317233579849,381.501558240646,70.3480476224918,312.918698721082,93.0341587013936,74.4357769448128,439.726403856354,458.18466863182,462.965305615621,462.334569428883,451.432838427007,462.537300079536,467.877327071229,348.888786480245
,81.5,447.66810369423,488.460691204625,463.254774021259,453.160363126175,419.617619738559,425.829218919256,430.868248642578,458.752110291859,443.668013972981,456.546390400773,341.514268562825,452.615243404133,403.327437393564,470.299534826556,464.214955847302,450.883997509319,407.855610309376,432.645800064587,477.950746161202,494.963506524491,455.725723976961,448.571311634199,462.950048925141,363.672233890005,461.653534510888,489.214802005084,470.792188756659,451.679412534169,425.996845780446,438.583277629222,490.529145297958,493.120777105263,491.261813094406,483.666104799843,526.781410003329,408.827058834365,463.588000908051,476.346621139497,477.32315445071,468.49536945361,414.219763606684,462.097492967702,488.795520535758,465.018935011755,457.860883235579,441.850171128724,493.366901877745,454.263466124281,478.040929257265,494.916876436399,488.552786191946,76.8769226107595,431.121680929123,471.034012259582,491.45563477702,469.052646868412,467.23405917122,440.532773372917,505.771333835433,478.29393459843,465.42709461973,491.093008998023,492.18859524708,47.9022470617589,432.425819889454,457.855987663268,477.4267954171,481.130169788834,460.128886834701,456.884481259035,482.791704596491,451.784361660927,54.3051716431913,468.111288930649,188.521801865706,28.9960066363873,458.870849941379,485.305338954377,526.994728806766,509.324823372333,501.577104465949,483.183523518939,521.296256968032,418.898273834604,67.0185214140926,306.770456598331,107.079948351276,73.1838958688422,439.551383938174,461.161153039738,460.386865594782,465.466518460374,452.847273284478,462.501084053654,470.033854174823,317.109225947735
,82,445.505032121821,485.428529315001,456.916360139589,452.46036480257,419.934691433537,427.082899271953,438.310798501435,463.948175279397,451.861965778637,457.001927570433,330.608834950804,450.906184280153,381.116401479391,466.36042350004,457.094281135287,456.388699251013,413.419011194447,433.084354669126,475.656945629455,496.320610796979,456.054501700155,445.166738887714,468.453139950781,359.86088332426,458.845376986633,486.403420669121,468.062457823603,452.274758046599,427.043988991061,440.833556903999,488.586309811336,491.784837531504,485.932682691169,481.148502581175,528.066603055856,441.781319814921,456.629351560684,473.052516695908,472.380772131339,475.236759494725,421.508064941091,466.878127607883,489.219143443512,463.673867692365,458.147469555893,440.793926348869,495.398291908243,456.4946274808,472.956247938274,490.089875322426,484.679426659013,74.4114131730861,431.056131272018,472.048929271021,497.565055445016,474.320499288714,474.978957082269,444.835595332129,512.592483359173,488.251657106495,462.038802058668,487.129852018604,488.002985735644,46.7835177536541,436.040935401534,460.092365851118,478.712973243661,482.836946488644,461.117900074088,463.206060415126,490.090176996675,455.637294865494,42.9945895143368,463.881476379333,189.736662697592,28.5936087880208,457.376068068537,483.886135065369,521.843649047064,505.807919566178,498.85678886068,485.60061902833,519.629516211057,453.986239792157,64.848639316477,302.008996276481,136.533969969955,71.6956862783296,442.162994657345,462.102244669156,458.600576387391,469.303820455613,454.773752930589,460.147286163079,472.210921869655,293.486873600455
,82.5,438.452754144341,480.70976248632,451.813414348606,450.569001018123,422.229255847114,428.012954649179,450.856285629444,467.412502735387,463.210955731866,463.146729996005,324.984625415008,449.54565686137,346.224169434205,463.688525295795,451.066717773256,462.788030547027,417.444986573875,435.212610122175,473.206056710426,497.943539271655,456.371962617518,442.090134521331,471.881016810727,359.755955615258,457.613464524765,485.21229408506,464.928693582367,455.168499922097,427.920657245368,443.942381119182,483.399291826535,490.515390581638,480.961826502537,482.736547155768,531.413402277286,469.665373819423,451.711582682568,469.906062831313,467.347998750777,482.244493965555,428.049138012883,472.347108063505,489.34745537859,460.875416450192,460.585580491681,441.965618228231,496.514819083615,460.406619738639,467.269307066991,487.220092705261,480.31333179927,72.0955110632594,434.017781188192,476.241237443084,502.121007434622,478.519233468426,480.628585270468,447.542586860043,522.018522318071,496.835793398446,460.174220141314,482.924417148045,486.457644815638,45.865142366977,441.983540089117,464.091522795362,481.662844444466,484.452352086421,464.286310298722,467.909597069033,496.008753589073,460.492104588066,34.6358837219466,459.013180679071,199.796835760288,28.1860858498573,456.509959318131,480.077319902495,513.908678432945,500.072946732808,495.619544641509,490.246192762247,521.122963064075,482.173417643975,62.5702726015066,298.889122429808,173.728332964513,70.5706126786758,445.592957697847,462.202817142232,459.629454868243,470.014018433506,455.497260818152,458.309269993582,473.480114482163,271.956124465935
,83,430.439064369603,477.621413266006,448.214539974787,451.996871425248,426.621285301932,431.970080983376,465.337498750818,474.013499438461,474.333978587402,467.706655445324,351.959560751791,448.62716403,317.579669927086,458.559594230103,447.802154838288,468.430028329751,418.222011035901,439.787844562257,472.587173343879,503.869662758728,459.936151452891,446.622203431237,474.54324102672,360.876011535721,454.574237995814,483.805382389622,462.575371391159,458.103294241997,428.55277106625,444.196184154377,477.711067501702,485.176259142937,480.543525116379,490.030743043148,538.547801876466,483.082475690984,448.487537218128,467.158956563921,465.570069302074,491.215187214993,432.736383642331,478.285881302519,489.877361867562,464.337036782892,461.633863599176,441.510448173465,498.102226513053,465.402496787964,464.741668173734,487.535466284756,475.997879516471,69.5240817670531,439.25784841389,483.511064879643,503.935329199822,481.934072980768,488.432017118419,448.17442035985,539.57474382719,509.453978908261,459.347395713152,481.229909513143,484.730042658967,44.7489126972689,447.719564358032,468.102189796414,483.524197663633,486.671289437224,468.290311858172,475.32275871443,506.564266225648,464.735367267016,31.4657495676099,456.139249649731,224.305377956049,27.2244969224388,452.271825274889,478.642532650551,509.131198400601,494.478662683428,494.282690448095,499.272249903937,528.005235849006,495.792185001799,60.8846882745664,294.938823673966,207.694361132175,72.3152724254397,445.182372110228,463.800139278423,463.05932008472,473.480717377762,456.816486483535,460.267562722939,477.928081291408,292.383884893547
,83.5,424.225163569215,474.888212427221,445.817960041562,452.900337511927,428.250173974927,434.846455930925,481.756265212695,485.138789243477,486.993578736217,473.08009750869,399.596934724085,451.439722991689,294.776877948838,455.316357062254,445.360746242768,473.876966771515,418.925538235147,445.084772920633,472.231754094435,510.511702169038,462.800345319157,455.017715901792,481.817025088837,362.672207588509,453.100337096116,482.924911497434,461.629790784125,460.411740598036,430.397009896631,443.636080592906,472.687413014053,481.721988839362,481.656247387022,497.435109546932,548.024124276395,492.415640374549,446.3567648183,465.35575301642,464.388713157162,500.957465996844,440.242109375896,487.21008457166,491.831082456513,468.403962876724,462.959649999877,440.899024293076,506.579553603875,476.135111088201,463.591198488159,488.156484516699,474.907826201955,67.4705675436064,446.886892393946,493.796371781992,507.841342247982,488.445853995951,497.803395649141,452.683067620754,558.368396587558,525.553936194329,463.194534854784,483.252345596891,482.811704132964,42.8960732927656,453.383148210939,475.611206905326,489.909197411628,491.677456673825,473.366247491519,486.913877916378,521.819871987166,476.90344350141,32.9010900470998,456.39057305892,255.807734663065,26.1392284990397,452.662765729789,480.882149788662,505.629501444514,491.728815206363,496.334206425935,514.049568828191,544.161135777118,506.535794065587,61.4374595987889,291.3805507267,231.972830177139,88.133603091983,447.971192077076,465.71332327083,469.262496491064,481.276127131899,463.782420894815,463.230858257924,485.933336562732,353.477160961955
,84,417.857352035831,469.439417706036,443.951893716607,453.570977351647,431.244212311398,436.083374028923,501.71606513917,501.506864779302,506.435037019086,485.480935269888,440.952619810121,461.101798114054,275.661198974466,454.973867659061,445.628187495651,479.54939503036,422.974991295866,450.64764182124,474.912764782386,517.554821346014,465.47676151024,462.160919034143,493.264004124239,369.896989162041,454.796937474667,484.559185190054,462.023730031563,464.901437418434,435.603303570878,446.787681487612,469.902864070199,486.001483330199,484.980014679328,506.185559756323,563.834942250137,506.422464803306,449.299540475231,465.899346100068,464.521090017824,512.42182888384,450.187061176388,497.741910163472,498.199561593384,471.417557489096,469.380807244307,443.55993540594,520.339034018799,492.823268675459,464.827139187538,491.022290091246,477.805107198278,66.1074032408017,459.184949655518,507.672831780035,515.797404772351,494.245565441603,504.110471045918,459.788596747667,574.852467770343,541.946814337924,470.610498174498,488.958726131417,486.334445158555,41.0482728620677,460.851613957422,488.829767293445,502.847393478614,499.402967178958,482.915905877172,499.563353528271,538.440106705727,495.195011764155,34.8648758709618,460.735467119245,283.995985008704,26.040181525534,459.557006025633,486.211192815894,504.410710065548,492.621447389902,501.408327023618,535.060500317296,572.000547818195,524.259622367136,63.4677848628534,289.386750274016,232.681707390804,116.130309968059,456.064079320146,469.772674956563,479.797814307115,488.934611212635,474.140340770331,467.833564643208,496.427470557728,406.989084968053
,84.5,413.934511529529,467.080089147734,444.630320078807,459.095415773765,436.267643322444,439.555954185823,526.736294750483,531.568698503017,532.531713871283,497.230464791842,482.503155961257,469.316054717528,293.532487625278,455.716355403844,451.351683418507,486.410439650332,426.375374818962,459.320016219889,483.876567272404,526.914667336946,468.069067167387,476.319392695812,506.66583137304,377.566756058258,460.317668359008,487.939165938946,466.375923712117,470.587179763563,441.991701073064,451.805801726674,473.183608971357,491.793140951186,495.477765256832,519.612762817131,586.811444217894,521.423180715166,457.56448731544,471.685022083166,472.519295769117,527.218461864896,459.399264616698,510.681591250699,507.614954222801,481.047505806258,476.82105606572,449.871230946068,536.75801985444,508.224852901324,473.242565481971,500.129806309577,486.337795531577,64.7904588293595,474.092593923769,526.654561501231,523.755870117517,499.550868369002,510.142449326808,468.365728282023,594.087027275753,559.299959046124,481.010451508289,502.682869201707,497.167300720905,40.0539163794397,470.847259482558,504.50075758452,515.273316211198,508.126561513178,493.529413161011,517.682375432309,557.948831799333,512.848040728036,36.612368009508,476.678308725451,303.473236567734,26.539243604026,468.224888520277,497.373744420616,512.281983542526,498.228669063116,508.494482319428,563.752338569175,609.985144694066,550.212301666808,64.9899754276696,287.838359120967,200.297193875335,143.452927405294,463.833910623142,477.619037213238,492.49537906547,499.436007083933,487.063646284434,476.666382982072,509.661459646247,457.930388484021
,85,416.002456323364,470.647825090959,450.873741381457,467.72590850502,440.228096040494,445.243964655357,552.891994868863,568.975164772186,562.798770146494,505.690640829611,521.314789781423,471.331840263694,343.341120953738,462.277165533738,462.404205411158,494.23270918698,432.120564196806,468.809715413542,495.039699854779,537.850130362092,472.409674786101,497.078455856904,525.851648017637,373.49352210479,472.024071547064,498.349650356695,477.3476560861,475.683295763096,449.454363955691,457.18276319506,482.64207725205,499.410867513388,513.317395388233,534.119384577322,615.219614094978,546.155716899351,471.129473245132,485.953053079765,487.230573586899,543.224465344167,474.019298844166,526.992644932333,520.241254315756,495.616730176232,484.990614560732,458.905319303775,554.721915804903,526.239304495084,490.612699669925,517.353707105266,503.766990596653,63.6134583525371,490.82574071827,550.905580122249,533.355319424402,509.222160763695,519.784996050982,481.273432814637,610.927013438946,574.944185028994,500.150458250642,526.334314484742,515.768664789791,38.9905433725776,486.509857213682,519.624738633711,527.340835568461,518.926850864858,503.733565887087,542.148953109076,580.303981110754,532.65868293099,38.445659763172,511.754845542901,303.192829643951,26.847726286324,478.878814162045,512.686742818551,525.752614715831,511.301646730635,520.650763031473,597.249083652785,655.139268447132,585.598638117071,66.515005211222,287.787723439724,149.892735623706,168.16743493293,472.344285190344,486.902465412542,504.32430244537,515.90566293049,504.970856901483,487.178229716515,526.402141251987,511.813248722357
,85.5,424.845665165438,479.59399723669,462.941706739332,476.6155049977,447.831938851633,452.63429236653,578.691051018649,604.233178510216,594.30426410726,514.939373079565,541.480037053602,468.870916375363,393.34031737444,479.710979731844,479.78147411903,504.006629346573,442.425612303153,478.491036333679,504.576452940524,548.69408615651,476.961122516231,514.851022612318,546.434905966848,363.433451149954,493.676829086545,518.829752113761,497.443942586564,484.400506178344,459.760088924542,465.377632905608,496.558362033998,516.830084959358,535.627063621981,547.582513734103,645.705820451171,575.512521013174,493.556392429835,509.612313495677,509.176917037067,560.0027926004,504.084782573006,547.522751747832,535.132045411732,508.352036322657,499.309796596602,471.262284135727,573.391133323465,545.466730634803,516.748645487209,545.802200213592,532.870356447269,62.6703450248523,515.717170832892,579.694444806463,546.150887846007,518.854831692751,528.994235395948,501.422415676216,615.208997538583,581.03126042065,531.925893346318,561.179198096515,549.140603611896,38.4298565302093,509.889930386181,540.535158903748,540.537633448397,530.213593493059,513.279256456963,568.785020840061,600.717681325069,554.037388309973,38.3874943932926,562.804450452769,275.484811563401,27.4183723898728,492.633701457528,530.185394879865,541.311393055931,529.897845387653,539.66443392366,628.787746041559,700.694785443855,620.896677621563,68.2791659074798,291.705576788805,100.354322719645,185.421806967774,487.227941685385,497.813889439411,518.756911177925,530.578741064745,522.746727470255,497.044093943779,540.342653757642,543.993136018424
,86,440.562315875235,502.757884575528,486.208604079596,490.611357526484,463.243040214282,465.318689994211,607.706145852214,642.83010559214,630.94872593316,521.282488415005,545.274204347146,454.071625964723,453.312257311836,507.61518615108,508.234778919374,518.90312453967,455.662651540487,493.386618804912,513.781533686583,558.345292341113,483.784766043631,527.852351415442,561.532001243269,359.050877448658,528.076233907421,553.507936020892,531.34062599144,498.118848932835,473.806222300418,479.354829370683,520.335667257503,542.030958388922,559.143171718375,564.383375416461,678.351758679452,599.597430184231,529.480926314388,545.347381109161,546.461855805393,583.742831271138,574.195449997327,578.615267287766,551.448738464077,522.682797414217,516.821807715151,488.572590426847,589.935607076804,556.508873266793,560.487596167325,591.495291662682,577.67657200954,62.0455388707885,566.915570644006,624.30530221239,558.580574659028,527.223188179606,538.596525699415,528.337764029353,613.222941163052,582.219415576248,579.985178002095,612.678876181094,603.556048825895,39.2931371127148,545.950015207726,573.57088549839,550.534364680157,538.425351535185,521.338404505608,601.078479031413,618.632285568492,568.997205314881,35.7861251547913,628.752227247153,237.227070742368,27.9971250606153,507.640352245868,551.622355073429,565.402562760965,552.001829547945,561.39485277978,654.939494558666,739.524695355506,652.441167678417,68.1364384906915,301.769877893132,57.5839815691278,174.245292514341,502.889507248286,511.506793462027,531.78749340295,540.18326265436,538.296069101306,508.168156117961,553.446696514888,557.339236008506
,86.5,456.466070221432,547.603840902293,527.993664160226,514.079246428379,485.571077881719,490.042498978464,647.420903088651,690.022664874143,680.839755313557,521.891826572736,544.667040486114,423.206155878756,526.354182978377,551.196407204175,551.506540345955,537.932292770549,473.501125804173,516.04773820403,521.908248616988,565.238211238118,491.501813041159,541.725708851272,575.511509825164,356.426348577941,580.419549611817,606.089549861814,581.962133545027,515.747673648791,489.570986619792,498.46723417493,549.949345748335,568.416523719771,585.55526996094,583.493514982651,706.447654837055,621.459203426683,579.767735700292,599.49343592174,601.410621958505,619.011521715797,734.016648613357,638.634957003895,568.607851855728,539.592741677646,534.098785122812,514.266487580107,602.191001162867,563.782598119414,625.660474395822,657.633991791365,641.941626584542,61.5191903369039,656.257198050266,715.166022118534,571.156230101362,540.855364788229,556.384816851326,563.561073504424,615.305914663359,586.719970259649,649.883069932359,685.279424040709,679.361061849027,40.5546503110919,614.671119412553,622.3888200849,556.234531995495,547.171239050506,527.314052178724,647.851871953962,634.450560948686,579.849204591706,32.6966141253238,713.489021592343,209.636747060768,27.2444632573182,524.369456816801,576.497862779157,592.839721131096,577.593223159824,583.304879157567,679.399249321634,769.91006978846,682.01386336298,66.9719318151813,326.457334466753,27.7177781891638,139.734069293094,519.600816827099,528.495942871353,542.376635198686,551.273674459374,557.797111054126,523.230489008611,573.551405862113,583.448578451715
,87,484.167113453819,612.838776983186,588.824166709181,551.36098996831,522.237663228292,535.040298484799,722.799749394557,764.580742607931,767.131269001611,525.497920265404,549.066266983064,402.826871300417,600.900678186542,614.141958241366,613.223049568709,567.080927869695,518.470930484711,552.818988485359,534.560822516498,578.224958484929,508.295818409173,562.531825959333,599.581797533442,368.894775266502,653.188781455123,681.028658266571,655.06662956149,546.425421456093,521.287452457007,529.946741401149,581.458036665309,601.806482195454,624.00945121623,612.604390407152,742.583518049404,656.95062689627,651.775731578005,678.079301205366,677.96907498691,692.601286634314,1016.77103460644,782.339939743883,593.674866815265,565.261774754899,565.01208603039,570.153271267498,630.607297038673,589.052542089079,711.297052053023,750.039680741967,731.556588001928,61.8724418624507,821.49893817606,875.403400703549,594.755337758902,564.425708358643,592.749395572285,640.658669191115,642.523322021034,615.526323478205,747.877457899307,783.610650445902,783.585028184369,41.7982230126702,794.474287052172,726.801022519229,574.283938556053,566.01662895983,545.676934855952,726.998482149529,666.347345280407,607.700946050716,30.2960303625904,814.795245000218,202.263879993651,27.6462565967897,562.341524725919,620.862542139441,623.113518712428,607.949935370604,614.035149870122,723.407732828198,813.620431141457,724.895610552984,68.5043685641534,382.394899157197,16.3219709766474,105.359847543945,557.484202093829,559.470072985877,566.160786328177,576.213465200161,600.240333244058,571.530543399405,632.052888179954,654.426560083767
,87.5,539.813767743699,697.995841849747,666.353014347716,607.008919091636,583.317364651604,601.391459529546,862.180793632933,901.680753111999,926.054435940846,542.442928198071,574.832475233351,420.693197888021,687.09760271596,699.05336287114,703.101881431456,617.776324578548,629.993692665559,620.652272300191,559.511085519553,602.71337636698,543.748656617638,605.477301167977,649.082595892001,431.246993104275,755.765639274646,785.291665815219,763.232130589574,603.90121029042,587.197592557519,592.180425873307,623.032667041864,646.889516490356,691.651388447424,662.172033607167,803.340094577039,715.319340898998,752.055569292428,789.49653895343,789.522173182026,865.997745025906,1383.6601050652,1038.45590819499,633.985021570785,608.361339698158,622.280967853981,710.492980509495,708.036251793137,652.967386654618,827.447944671935,872.660204081927,856.976447944679,63.708113298246,1118.07745468051,1158.64753097182,640.500444739927,604.765962437815,678.269126946223,851.26662869389,721.487508155248,694.449647815332,873.166381951638,911.699801529429,919.925872733772,43.9070774482872,1117.17189728242,969.95635851713,611.829077246667,599.687613073602,586.186733454215,869.142484296558,738.524848226762,667.438424994387,28.7126443123082,919.799317574977,217.279142073019,30.2624588827221,635.259301221959,707.35608633001,663.290989676966,643.908652079963,664.47472926386,804.160414238246,900.248789742388,807.150923087554,72.2448263575956,457.252484694769,15.9075840685204,73.3343922425469,649.044819244885,621.980838907915,619.962220967182,630.462343500105,706.22717032404,696.072303133329,773.616205032369,825.060313204031
,88,641.889307039891,820.32129427481,788.629253115117,690.284912207685,686.743054902788,704.565694835639,1074.4660654041,1115.90486999457,1161.47168628436,586.911415598037,640.813263430729,490.839282674672,828.727834810035,836.688030308267,855.341393122584,702.074598082112,857.414182064132,746.573896386113,608.181778303008,644.25502966529,618.010734537933,719.53371702903,769.870530965628,571.225252635194,923.573574013451,955.693326327969,943.280719199699,696.871376292821,702.031769142131,698.757618386716,693.637311268234,708.724881200416,841.1066551191,746.612936198409,902.957719086511,809.758740283963,904.725156244943,969.179188204604,969.031367218916,1143.63792639239,1766.5653188442,1379.88657384089,712.282136489475,690.653215163082,746.407801065482,979.292843802451,868.354871033431,784.570483220607,997.870415786893,1045.37850532015,1042.99724242991,67.2752240000171,1503.40114919783,1576.40825191192,736.273456468152,692.564259216048,869.336761920691,1205.90427879122,887.066985366631,851.2708215138,1032.32923101905,1082.92567121773,1100.42779764909,46.399111138546,1518.60389738986,1352.25184439717,690.751721764517,671.764134582936,687.151901098857,1087.16285584324,896.450275813931,799.204045901341,27.888519298447,1031.77402646775,247.89957815931,32.5468935049317,744.908397653918,837.55952952119,728.247509056377,696.156280972096,755.040130483208,925.358546149687,1032.30838040264,934.786775644103,75.6244754523232,527.674558689138,16.8269931314319,44.5849563691556,831.342932867432,755.229830998946,741.623018435709,757.950757417396,945.688399494673,998.483942475566,1104.44688066685,1217.95644923815
,88.5,894.863193534518,1090.72887461668,1058.46946990996,835.109748210961,861.89196281662,881.268046129268,1347.27458952634,1387.40739344531,1445.68169765305,708.642607736963,823.049734733718,702.020630170613,1124.65278436808,1132.36935844547,1173.38901647339,871.955684168991,1223.62321832558,998.374471382818,734.500026637065,757.322875677239,803.024166847698,1007.86345653755,1068.33581103428,857.8081163007,1241.78499365178,1288.98354362982,1285.64508861961,858.332015515472,917.871946177967,890.321869144847,828.998033048221,826.53278648425,1221.89623087808,916.959592270592,1099.41843251069,995.323420029013,1188.86925041964,1299.98041641065,1298.06757220404,1480.64172311223,2099.81534099945,1766.04673819564,898.613264661001,876.455975390559,990.184649050034,1421.33843837244,1192.10999927262,1064.6175735762,1277.00131064421,1335.38687415175,1351.54647278446,74.0411354682442,1874.63230926587,2027.42377981228,962.047602062248,900.073574548096,1185.97916936893,1645.41187764619,1158.97514806523,1103.70661885873,1266.72517881414,1345.6307574922,1377.579964868,50.8267668281543,1937.73367787234,1792.9044469267,884.211592416446,854.294106847489,922.429279995871,1361.3332773157,1243.65624373707,1100.23433647016,29.0546134146429,1191.44655327834,275.441490739855,33.9857455596203,965.461454463895,1035.4131650947,858.892047674678,806.531487374119,990.062002067085,1110.0098961219,1231.43053957346,1124.43533515801,78.2284509941762,601.815941564489,18.0324352230891,29.3448270374583,1134.55903955125,1003.02662561461,1012.52632236068,1042.43619472646,1323.28848929399,1514.72708963798,1650.51464320386,1817.46955922147
,89,1413.45973213912,1553.98204183685,1559.11970449815,1100.18850027036,1171.66729830909,1183.9410457692,1649.15333679312,1684.23415292268,1752.16185779698,952.994527048319,1131.33326939146,1080.03499421106,1626.0065120386,1622.24164475106,1694.57808576531,1215.84007154121,1645.88967910018,1415.45515655802,1046.4258750226,1040.86620194504,1185.52291360092,1465.93850750579,1539.86324797899,1288.78144671178,1740.77231885339,1802.47044552163,1800.08216583953,1162.14195215613,1280.63352730214,1230.07814546607,1141.19185958994,1117.62607648582,1786.44903079863,1284.33188425781,1476.35396270157,1356.05196273389,1621.49442542537,1786.22910312671,1780.54799368538,1847.23076386499,2259.06250945158,2177.30322072201,1236.33041519388,1205.38745243909,1367.85474057836,1969.11526198178,1670.18072858742,1504.26296777889,1665.23279921409,1729.21815872424,1765.52953498114,88.7625415859349,2184.23695877006,2404.48675633433,1356.30751211884,1268.8195683054,1604.03132363938,2127.59141497887,1555.49577818425,1471.59479975056,1560.73746338929,1676.82069249145,1718.423605665,58.2961423777807,2318.55109566904,2232.38640295305,1279.2160621785,1232.61079435672,1351.71961856141,1697.26699949301,1765.07971479222,1570.38843752451,32.0615174110667,1383.14209170176,281.923035899137,35.9364790094668,1348.29955330065,1378.48108182478,1174.31056561506,1089.44750216779,1448.10293888606,1402.33458157177,1549.72490257602,1425.3494866644,79.3089527418636,669.498081637739,19.6262561356234,25.693528936104,1534.23176626268,1379.839192554,1431.5719407296,1482.77833593007,1769.18559826686,2099.50846603226,2254.16998573199,2446.05380863003
,89.5,2034.86349529283,2047.81831806161,2142.55423704135,1517.55049631961,1589.91431773576,1604.84684478526,1930.61223831052,1958.46118031874,2034.59317724636,1296.52040500486,1533.9774578813,1556.93351732731,2172.94344970993,2148.87147099449,2255.54968899778,1704.99425299916,2013.97110877287,1887.08789697759,1542.75653749445,1464.87522611566,1688.05946168229,1968.56789744591,2052.94047573533,1748.66455121643,2269.81235776933,2334.26029143865,2322.72705643733,1595.89463207329,1697.33236128551,1670.1846480412,1635.49969918103,1597.30818516669,2330.66780568652,1771.36457038476,1918.7471493208,1794.83276745107,2059.18307457132,2273.15083828731,2259.51999161793,2217.63262155415,2152.59534166484,2477.78122754637,1687.87807653348,1641.35542429459,1829.8946007215,2463.0673999066,2163.41926467691,1981.39900255003,2038.89322849786,2089.65235267349,2146.30564934575,106.963925015622,2350.4240365746,2651.95949721785,1851.17621329201,1741.91767110059,2047.90949366087,2551.02952928797,2002.98494223219,1879.15505308816,1804.98365384985,1955.50983103496,1996.39231832506,65.2034316709957,2489.87727319167,2572.75311429922,1827.6158657378,1768.00291279651,1888.17155920065,2077.82334289644,2305.26686410433,2073.13187660281,34.3654903262202,1519.31317016742,256.521782531572,34.9026775369618,1759.38496118371,1779.80745935047,1680.64684430041,1562.84261004568,1981.2165829735,1720.46836115731,1896.65071466686,1764.1578751067,76.824293308764,675.955427930106,20.4514017933579,22.8472805441274,1952.02648993367,1819.19587345472,1891.04443505724,1968.12337828242,2200.73971270666,2605.46650953623,2766.94584845209,2973.66985907654
,90,2571.36554698648,2468.4517710166,2654.73097787028,1986.89932599132,1994.62472767041,2034.98756556451,2123.12945504818,2134.71995500302,2195.3236788035,1737.07059664072,2010.48215243222,2099.87336957149,2632.98346910957,2591.88903787362,2721.70658105159,2197.2226689218,2254.87371202347,2296.29320779549,2082.99018467296,1919.33601169186,2178.82715202869,2435.72997888959,2524.79395332757,2161.82919233755,2695.02414054648,2761.53899825889,2732.35825109934,2037.62246035306,2057.09712985447,2089.01340496317,2149.10179693711,2106.28930559737,2784.1988127476,2216.9997273804,2287.27186704498,2172.05568151638,2398.72339484146,2647.9824244235,2625.12655542046,2440.88617988332,1845.03396193188,2534.58091157906,2187.05823733793,2124.93890621565,2291.58415670012,2779.09440974913,2568.36906216624,2391.0374063058,2302.77882840865,2339.97121025929,2407.71287307255,121.44764275163,2250.15886354278,2644.37151974037,2352.13548500337,2230.32619982241,2418.03514501636,2706.07962805688,2373.00383987721,2228.43591691618,1944.50452240104,2122.43729802514,2161.15201193155,70.1975906972262,2353.34468841722,2641.12043529726,2385.05590325805,2322.47260614134,2394.75604685778,2375.64094664122,2766.12444525142,2512.24307700277,35.5045719426413,1572.4060903801,206.30824230807,29.7456891826586,2105.30941997803,2104.96250019884,2216.26772472349,2077.08345809613,2448.00957464095,1958.52938602134,2136.46577298107,2012.65958502873,72.9109788511527,633.145549453865,20.9402291407667,20.5767545790341,2286.12453684627,2229.6207481252,2307.06321815336,2408.52706548375,2509.86010616493,2946.88618106775,3097.07451430168,3279.77317146772
,90.5,2985.10538003671,2780.05872085891,3041.84587838405,2387.26004977167,2297.70988607105,2371.22073909819,2162.19882605203,2151.04747037251,2181.77627015708,2192.1655446579,2442.02046563684,2597.99580381116,2947.46328907563,2887.88914754102,3023.27100793409,2606.91921299025,2269.53220501475,2589.61813449274,2575.9128051565,2365.26048749375,2606.21029966211,2761.66568643147,2852.3847709476,2445.56079782866,2945.01749867563,3010.17972537072,2953.60688161375,2413.29987922913,2321.92382474446,2430.82212926565,2576.45730884362,2541.19611002939,3040.73799995754,2585.96524508535,2568.31987564895,2464.4130329818,2586.41341450873,2840.06890364811,2809.44290881884,2427.6180209786,1443.43811580742,2381.61010672924,2629.71320387148,2552.67542950412,2619.23008685962,2826.9963370767,2803.92184470043,2661.91642952319,2408.94343327499,2433.01107407017,2494.74830457559,131.645854176834,1934.55099081523,2335.41828995233,2747.66378294195,2630.64133777437,2608.33374889016,2543.90638319379,2577.89884399575,2453.07354606056,1957.70158224586,2145.7401112869,2176.99852640686,73.36493309913,2014.3541492245,2401.45461048418,2844.06034414349,2787.99884102538,2771.24338799279,2498.34103410728,3046.11242522068,2796.89533241383,36.0954125491385,1541.40196057323,151.234994545955,24.7514869187153,2392.94226384834,2357.28124326866,2679.44676709226,2533.84999148639,2806.71715682622,2114.70725680756,2274.48583521572,2164.38762382204,69.9321295327386,585.326950133364,20.8383988395098,19.5144339862735,2432.98009167193,2501.7643951491,2580.94841585976,2702.39778530037,2555.51216339492,2918.78985201227,3032.91886641769,3121.85573000011
,91,3060.70381994424,2735.9284661836,3084.29379358994,2638.0522506676,2429.1884378214,2533.23619989415,2038.99484186948,2009.34464540398,2018.92969641218,2476.44688923689,2630.68125362103,2821.86873722269,2896.90542361306,2813.74788473193,2938.58454255083,2826.67484530793,1995.45479285943,2619.64427791486,2913.89810240623,2693.78872042854,2819.97996993237,2728.30092007371,2812.2115553311,2411.70621374377,2834.73129186563,2870.65567750738,2788.34747559272,2650.59592464142,2377.47267513679,2596.17331575192,2832.79356908779,2824.22251575373,2805.44262491222,2759.96045416392,2623.53988463283,2554.11325349615,2450.96708043815,2669.82379134413,2629.20409391632,2250.13205891602,996.93203073989,2080.41286200514,2838.60767782945,2756.20600463167,2686.88377495061,2502.15563238919,2698.66716350658,2631.78650601443,2226.73606461675,2218.54615300786,2262.76899620088,132.775219669448,1545.58595204582,1882.1017378953,2861.14154683902,2771.52807667166,2543.24694189973,2172.04982189824,2560.01438202462,2473.36407751662,1744.8397677086,1909.67987759485,1917.46680432164,69.8087081748388,1576.73287255899,1980.00476420128,3057.53721334869,3020.43750315283,2865.23695425417,2460.76986778844,2927.45959829689,2729.75477374665,34.9834225182258,1343.59812133134,102.722029486855,20.9154727815179,2447.04754764313,2457.68992732179,2975.30455114773,2847.73730417035,2844.88709306189,2129.25354783831,2263.48999014789,2175.08477883255,67.1885015545752,503.313082930345,19.2871198531622,19.2228566906491,2318.33790661268,2519.67152653772,2543.82400283623,2671.39297248171,2311.06788769345,2441.51312981313,2513.32050988208,2523.47285306402
,91.5,2585.87704650152,2230.73243236158,2596.46142213045,2606.97272986614,2256.97978802154,2392.56689522171,1787.67798044618,1747.50229490424,1728.47801799879,2504.41976519704,2554.2051441881,2730.9070752086,2371.28576743423,2283.46253311836,2383.18613182713,2671.14011861852,1574.90048918942,2286.50460264037,2868.18683133333,2679.62958916404,2627.09941739342,2334.91413041602,2398.9222899,2059.09552652314,2287.67434503433,2292.13894396989,2208.19994234481,2582.77053460269,2123.00286425562,2435.7836710027,2697.20506569761,2726.5345229892,2170.85230557879,2505.37473722499,2282.42297012016,2261.66738650329,1947.69730712306,2109.52172729603,2066.4919121084,1948.62258080529,602.412543485765,1619.27927331185,2712.33209700847,2646.63947575544,2457.20336073552,1921.9945720807,2267.117696982,2265.88615343071,1738.36321899566,1707.27587468782,1732.59795895803,115.93231010143,1138.47379527259,1404.17146403339,2609.72422542416,2558.53256853612,2232.88150444445,1666.21225763662,2257.47706446987,2226.6062514397,1320.85584401234,1443.32725249554,1432.73572657862,58.4628538003126,1096.62070097365,1477.97761597125,2846.16799917633,2834.97761921312,2548.19562690068,2226.34085218941,2433.20902332121,2299.46057097065,32.0638887271745,994.264923110674,66.5692610519011,17.0198024897043,2141.82557526686,2228.34785829459,2865.723842578,2779.88857467099,2409.48524864848,1887.59747838469,1980.43878148027,1925.5913605633,65.2151639832264,379.467779848594,18.0282513183337,19.5175796097338,1975.19740225953,2243.33380025372,2186.73381477997,2301.27525212123,1891.75661640797,1791.72554226854,1831.67628704154,1815.0541842897
,92,1851.76709730864,1578.44914725143,1863.95905239814,2204.51490161889,1810.93453877968,1937.29781621631,1424.97470400839,1382.90699717951,1324.2561223131,2305.99257867849,2244.57425764167,2399.12691475011,1669.63645055508,1599.93856811611,1666.19713204328,2169.87613941918,1163.30896497391,1775.9302031784,2410.17150053257,2336.41974567741,2150.01301974186,1802.48904291581,1844.14663219717,1590.36283089776,1586.67317514563,1581.39029460953,1514.52854792016,2195.73780052767,1699.00925991781,2014.1399281649,2157.19575335344,2206.16833131019,1505.71353011351,1951.16300922821,1737.3705683323,1740.32291189797,1337.3775560817,1442.46887345808,1408.69327407875,1486.05612227008,345.713733431188,1095.17118782655,2300.97336155316,2265.91155518843,1995.1442034206,1332.7685521139,1731.46393144686,1762.14166448842,1173.9459319618,1146.49344965285,1156.20233005593,89.1121187475341,762.503588161092,937.125353208143,2097.73958663625,2085.64809666618,1791.05675154299,1128.96023007902,1748.36873091243,1801.76307753009,875.288496999821,959.093834599883,944.913739137381,46.0368241124836,672.85507020863,971.284269478261,2270.53383964785,2280.83370810272,1962.64233973296,1763.44858700761,1822.70832108451,1732.25206730154,29.0961459607533,647.643038263449,46.7420821557312,14.2675489816311,1686.60618287991,1786.80253037902,2328.74305155685,2284.51243671107,1770.43511301943,1487.67531098129,1537.24217985474,1506.05144918123,62.540638404172,272.558667308536,17.5069595920331,19.4819196110316,1509.31214009685,1772.68631518236,1684.10465669744,1771.67579518192,1404.73754147221,1175.64390672419,1189.36626954134,1149.11986827568
,92.5,1178.70140357188,981.834119663937,1184.57509218357,1617.88634395799,1304.00211535853,1376.80203729109,1010.11578887354,974.2700354812,903.147081392389,1854.81747524459,1701.64624402322,1825.48861415423,1030.98751209878,978.023193725812,1015.95878773806,1572.08317078873,784.057754285349,1271.19247651366,1802.38008421448,1871.15557907502,1619.3951689265,1240.40755567427,1263.09959992331,1095.36018017656,960.810690783809,946.485308225467,899.274586905381,1691.63202417261,1270.07380120126,1522.41013442595,1514.26789348366,1562.76536183363,887.994683810002,1385.78096994807,1216.55319894096,1228.48171209149,799.124803863228,854.843961642921,830.287628045641,987.218733934838,196.643056524224,679.223599179223,1719.02956742613,1710.46020278976,1429.54365096434,814.431381426264,1206.04943101315,1255.88414918612,687.728952766651,663.340010238269,661.332501116188,63.8811395743093,493.892145117498,563.375951272139,1481.66083710989,1500.77175222616,1316.21844378158,696.717114975085,1220.83508420304,1323.05267996284,502.365056158532,551.325504556131,531.886042361808,34.2111330326038,391.022249005265,564.598121327628,1597.38578960073,1619.21662733561,1351.13989201954,1232.40658577757,1221.84919760629,1168.315852306,26.5645151509489,365.581237180136,37.8241434503793,13.816731000962,1230.31350131855,1341.63650538754,1668.01512916427,1652.77050546598,1166.19060507219,1088.94294718747,1115.69639860414,1091.06931075932,54.9558219212697,191.232365586807,16.3374294436712,18.1672351058743,1024.56298609845,1240.3381540583,1154.44390474476,1211.07297513635,937.444014370273,636.863194061268,633.743142127551,590.225491906764
,93,576.507437393424,451.091362138885,578.772344329486,1059.60202799302,844.64638968873,864.276232602664,650.165540964107,624.696943340987,567.338716741014,1275.26388464936,1111.76032840652,1185.43458686847,476.921473737664,441.21816067876,460.250818753255,1007.60882367115,484.201146716812,794.929137317752,1199.57801864711,1345.10234056099,1078.39691361994,728.267961186964,729.25684571321,636.638592622642,435.323466831981,414.036320555135,390.617660644643,1186.03490133875,865.121595890717,1032.44321140893,924.978952737887,970.007071005689,374.668338243387,836.173695396594,711.26933836458,733.214898059292,350.106177435707,371.430644276234,355.698334519648,614.235936909782,108.541395506634,382.007734478444,1110.43503158036,1123.41790845867,892.456755017785,421.255194387702,753.248800001266,805.907075750852,294.347209267031,273.703313413942,268.256511690528,41.4666506285612,334.062868164303,338.595881138315,894.955792594398,929.645785171885,858.810589362866,425.899308577011,753.468012972505,848.714009055569,208.051180738055,230.065535804107,208.470201488049,22.9079799328665,221.860892907536,310.483124857126,972.991008542385,999.706612940489,797.994183010732,787.599048223447,698.653759165004,674.406040811093,24.3509948640304,142.836568156328,30.4748344543248,13.5928233339243,755.417907348723,879.12409641176,1044.07979495992,1049.03098708763,611.159082596493,696.994322680906,713.787160715225,695.528783576086,44.0981359041922,111.394580192281,15.5638240806185,16.6827108950005,609.156778009213,741.988182147267,675.612901210774,703.62606330146,573.384368136613,285.315416191571,277.236401935791,263.940603233459
,93.5,153.26575790322,112.82356305189,157.469008756612,572.927411229895,471.640574196844,439.509103569421,382.457876622628,366.97545816024,318.610851595512,789.334389691194,648.433547803139,689.352180828323,120.022925073288,103.977760053477,111.511101030838,522.370838617302,312.82575903111,423.545460918273,647.963786571708,805.264789802231,597.797724549754,387.141054533529,370.005473154094,328.948398570286,105.391502427078,92.102304527386,91.1397991014168,710.704190629644,543.751484760917,599.001348398642,428.874892202556,458.943611469806,114.798557245481,373.689578390163,312.241848689573,331.66691771095,78.1793474015479,84.8971007956899,80.7246286204393,336.240742146467,69.6186357435851,172.58334793714,612.098425056754,642.221277032424,481.338477101648,215.93201954381,465.235843639137,501.473348235607,62.767478935993,56.2499680715,52.8655270896749,24.1099938432488,228.171360884308,202.491103778921,451.519762798596,487.686274823717,502.864661605794,263.089115427756,389.46732138834,470.25454800568,45.8811612415151,55.7228562288099,42.3880161386153,15.5552211852191,117.411339844453,164.630965430212,471.131896579947,494.452934179187,381.504953937654,432.697258376703,367.734922755388,351.050204257872,22.9511824245848,21.8341942317693,23.1752740502933,13.6704041060857,379.471533625631,464.441348643002,501.071230484361,511.544474107684,223.195671330105,360.499369359665,368.869786165984,355.912901443319,34.5917402641405,54.6532910520605,14.6346225114537,15.3776695293639,317.303360249317,370.315847600026,345.607746301225,353.782760498287,339.658585430175,161.808889805112,153.315743680944,161.271481306867
,94,15.6721892686642,24.0356409916998,19.7500202352318,252.669948763841,266.626258835539,188.846015511135,203.813081009438,194.39907100061,159.451571777867,453.809241425334,339.004094618275,362.154301401058,17.4321463826824,12.7154846723749,15.5620154704645,255.011058102476,248.334333735207,273.340533486554,322.584426308737,504.490842062016,368.287965469682,250.270243264743,227.414093049031,207.074314314614,13.3638497736785,10.1300699559852,17.6339367724324,431.352018407911,403.581397607263,370.319648675367,146.069651975357,156.769340028823,69.4811602857799,161.918808611649,150.810308087584,157.514638840886,8.94598487100563,13.8718853606415,16.0921274921322,140.69392677316,62.1026081081312,69.8614471451516,315.279813308599,348.905260061168,247.751400989163,158.18650089144,358.762239307875,380.268773869569,6.03513255902851,9.93111706005186,8.58904448775388,16.7014709717744,164.711308024205,119.355854030271,213.406458190561,246.517062934622,322.512326632802,186.093233084924,201.175629750792,260.696593871146,11.1728030330936,20.9272184802694,12.7181498010643,12.9511183341569,61.4246232262952,82.083622765624,201.712634362068,218.860411610734,192.511872854424,200.65970816865,252.096109005532,232.048666182823,22.4805825329455,-1.22332994575527,17.5905550978965,13.7040507614306,226.034520171526,269.537754019961,188.518748095703,194.242878445613,90.5564199584777,196.550447880206,206.914984299155,188.754227919929,26.2069530062122,33.9808715499248,13.8230368510918,14.0750555862338,171.647761775734,173.258381193813,202.061921878468,198.857599706832,229.533150776461,140.165902559515,129.761047635398,135.251946582007
,94.5,20.1843003781637,29.4721801349891,21.1648646199734,116.753662258696,211.590170348424,102.54259496655,109.193041116,103.66650341779,89.3383073965863,226.670207286103,145.173111758888,158.846375591684,24.1505470249027,16.9673067390074,18.7894133645166,142.561773793411,169.000347126704,182.679805626519,172.220187171221,272.979597317802,222.634552488933,176.848937804259,145.631499348112,134.048066863217,21.1400563178532,17.5664808052134,24.1711161917121,269.434758353744,341.992480370702,237.822927564777,74.6681139723963,72.2668492732851,54.754011041573,80.7937347570644,76.1530520221521,84.5005262720906,16.3241813156636,20.4456383462493,25.0183019547414,57.6305711174628,56.1271309933403,52.618026817239,147.336001451805,179.657979074931,122.823055712041,122.843569707117,322.287599335341,347.502193332315,13.2860714876509,15.6657644167577,13.3621139762133,15.5551833338161,133.421076068355,76.4187302767916,107.634642851731,133.136002764766,169.449052569605,151.085385757931,111.971937529173,131.483040018704,16.7235002074198,21.9297531214861,14.2824336385258,12.1491631262065,44.3248772428464,42.0102468900999,119.460204136508,131.105047328654,137.68610231436,108.492962993137,196.490181880344,186.981763378547,24.013476893631,0.962517317759648,11.8268131429546,16.3443061681642,126.067843787197,141.107074388628,81.4453015562992,80.6413829940848,68.1946900710017,93.4881795290891,104.18200890957,88.5173776864372,21.0987937805071,22.9230400662445,12.029274507892,13.9903128801749,79.4881510851924,67.8325041361109,126.740364944057,122.43180716862,140.713830933205,127.394001614863,113.904520750491,115.318768204288
,95,7.15688277581239,11.8126906872325,7.10378267759791,34.180234838724,84.6035846360594,34.5378402383728,33.3527987728188,32.499378509653,31.0305196363718,50.132912546717,29.9028634620028,34.2484116232456,10.2485815892511,6.16196314937474,6.30629117184503,35.1933583082626,42.8416726489712,40.1780729076168,38.7164862274876,30.448868487819,38.1462368637129,54.3431105144413,37.5819883020882,34.9801817292895,8.97967095860906,7.30162744302379,9.98308405715238,67.7488827235296,123.426179422632,59.5948657810279,28.9043776454004,26.1271258636475,18.3029544071051,6.4090487865999,2.73805086345317,9.32466150317578,6.6987821989195,8.08970735447656,11.4285834653949,21.715745252096,21.6521900871361,21.6586732358179,28.0259727840644,41.7714460810016,25.1544088266413,42.3007480643769,129.552471174109,142.46964320116,5.71849338065874,6.42881650431229,4.90346681918959,6.15304191883683,51.3714284426302,25.7404379461916,27.7600624363287,35.3649929111418,19.6651693037874,57.2697873776186,23.4200100541913,19.9756212305605,7.64765583954375,7.38062958842784,5.2591204453704,4.95372624121183,17.7242314481185,12.7763777748545,41.4095624201583,45.1072638912034,45.3301527365285,38.005546695011,66.3095789094986,66.9085490670393,11.0520119754671,-0.147459809643351,3.3551488646159,8.3092716573442,16.4151343098116,10.5934216288706,18.624305789376,17.2352372155065,20.520818971633,3.67238201013026,6.98196336948911,3.73872310810157,8.560387212367,5.60307523335632,4.1997332926336,6.22760660609731,9.68478647419443,2.82090040369485,33.54835167312,32.8972703294432,30.10273739998,51.025169076273,44.3074664502492,42.7988256667941
