Well,Content,Cq,Cq Mean,Cq Std. Dev,Starting Quantity (SQ),Log Starting Quantity,SQ Mean,SQ Std. Dev,SampleID,Plate,Date,Dilution,ul_dna_eluted,mL_sample,calc_qty,per_ul_dna,copies_in_dna,copies_per_g_sample,avg_copies_per_g_sample,avg_std
A04,Unkn-01,21.6725286044143,21.8999700369042,0.199470473134035,272334.60049441,5.43510282257083,238351.103982101,29733.9800408261,WC-4-11W,2,29-Jan-25,0.1,100,95.0,272334.60049440595,1361673.0024720298,136167300.24720296,1433340.0026021365,1254479.4946426062,156494.6317938253
A05,Unkn-01,21.9822063801597,21.8999700369042,0.199470473134035,225596.222807483,5.35333182391237,238351.103982101,29733.9800408261,WC-4-11W,2,29-Jan-25,0.1,100,95.0,225596.22280747647,1127981.1140373822,112798111.40373822,1187348.541091981,1254479.4946426062,156494.6317938253
A06,Unkn-01,22.0451751261385,21.8999700369042,0.199470473134035,217122.488644408,5.33670480820042,238351.103982101,29733.9800408261,WC-4-11W,2,29-Jan-25,0.1,100,95.0,217122.48864440317,1085612.4432220159,108561244.32220158,1142749.940233701,1254479.4946426062,156494.6317938253
A07,Unkn-09,21.1601309341416,21.1659999176784,0.233333540217731,371879.630137021,5.57040239034776,373040.697978126,52649.1327093915,WC-5-13W,2,29-Jan-25,0.1,100,100.0,371879.63013700827,1859398.1506850412,185939815.06850412,1859398.1506850412,1865203.4898905691,263245.66354691883
A08,Unkn-09,21.4022125851614,21.1659999176784,0.233333540217731,320981.701922126,5.50648027545548,373040.697978126,52649.1327093915,WC-5-13W,2,29-Jan-25,0.1,100,100.0,320981.70192212175,1604908.5096106087,160490850.96106088,1604908.509610609,1865203.4898905691,263245.66354691883
A09,Unkn-09,20.9356562337323,21.1659999176784,0.233333540217731,426260.761875231,5.62967535684285,373040.697978126,52649.1327093915,WC-5-13W,2,29-Jan-25,0.1,100,100.0,426260.7618752116,2131303.8093760577,213130380.93760577,2131303.8093760577,1865203.4898905691,263245.66354691883
A10,Unkn-17,21.2633890665519,21.3632200459453,0.149660648082127,349250.379288348,5.54313688643331,329574.795609312,29193.6205415514,WC-6-14W,2,29-Jan-25,0.1,100,100.0,349250.3792883486,1746251.896441743,174625189.6441743,1746251.896441743,1647873.978046547,145968.10270775488
A11,Unkn-17,21.2909731795359,21.3632200459453,0.149660648082127,343441.877435162,5.53585324956148,329574.795609312,29193.6205415514,WC-6-14W,2,29-Jan-25,0.1,100,100.0,343441.8774351548,1717209.387175774,171720938.7175774,1717209.387175774,1647873.978046547,145968.10270775488
A12,Unkn-17,21.535297891748,21.3632200459453,0.149660648082127,296032.130104427,5.47133885014602,329574.795609312,29193.6205415514,WC-6-14W,2,29-Jan-25,0.1,100,100.0,296032.1301044249,1480160.6505221245,148016065.05221245,1480160.6505221245,1647873.978046547,145968.10270775488
B04,Unkn-02,21.5222555995278,21.6180965855,0.227706896552712,298388.919562778,5.47478269191695,283256.463778995,37697.9230791374,WC-5-11W,2,29-Jan-25,0.1,100,130.0,298388.9195627789,1491944.5978138945,149194459.78138945,1147649.6906260727,1089447.9376115003,144992.01184286043
B05,Unkn-02,21.4539762574313,21.6180965855,0.227706896552712,311036.94706289,5.4928119805139,283256.463778995,37697.9230791374,WC-5-11W,2,29-Jan-25,0.1,100,130.0,311036.9470628867,1555184.7353144335,155518473.53144336,1196295.9502418719,1089447.9376115003,144992.01184286043
B06,Unkn-02,21.8780578995409,21.6180965855,0.227706896552712,240343.524711317,5.38083242594448,283256.463778995,37697.9230791374,WC-5-11W,2,29-Jan-25,0.1,100,130.0,240343.52471130458,1201717.623556523,120171762.35565229,924398.1719665561,1089447.9376115003,144992.01184286043
B07,Unkn-10,20.6458974341176,20.8843031943318,0.218057500728494,508377.958065167,5.70618671242054,442396.767206819,59746.8393758231,WC-6-13W,2,29-Jan-25,0.1,100,100.0,508377.9580651645,2541889.7903258223,254188979.03258222,2541889.7903258223,2211983.836034059,298734.1968791444
B08,Unkn-10,21.0736565822523,20.8843031943318,0.218057500728494,391954.906634793,5.59323610547411,442396.767206819,59746.8393758231,WC-6-13W,2,29-Jan-25,0.1,100,100.0,391954.9066347776,1959774.533173888,195977453.3173888,1959774.533173888,2211983.836034059,298734.1968791444
B09,Unkn-10,20.9333555666256,20.8843031943318,0.218057500728494,426857.436920498,5.63028285231596,442396.767206819,59746.8393758231,WC-6-13W,2,29-Jan-25,0.1,100,100.0,426857.43692049343,2134287.184602467,213428718.46024668,2134287.184602467,2211983.836034059,298734.1968791444
B10,Unkn-18,26.1356493324751,26.0390459611511,0.113310419443699,18055.4121647397,4.25660740684919,19178.2082665936,1336.22913664715,INF14,2,29-Jan-25,0.1,100,250.0,18055.412164738118,90277.06082369058,9027706.082369057,36110.82432947623,38356.41653318407,2672.4582732942217
B11,Unkn-18,26.0671647743172,26.0390459611511,0.113310419443699,18823.0884557901,4.27469088313281,19178.2082665936,1336.22913664715,INF14,2,29-Jan-25,0.1,100,250.0,18823.08845578857,94115.44227894284,9411544.227894284,37646.17691157714,38356.41653318407,2672.4582732942217
B12,Unkn-18,25.914323776661,26.0390459611511,0.113310419443699,20656.1241792511,4.31504883579577,19178.2082665936,1336.22913664715,INF14,2,29-Jan-25,0.1,100,250.0,20656.124179249422,103280.6208962471,10328062.08962471,41312.248358498844,38356.41653318407,2672.4582732942217
C04,Unkn-03,20.6818973653175,21.1915787279377,0.503371917850643,497371.462087188,5.69668086293308,376361.869847827,114503.742117005,WC-6-11W,2,29-Jan-25,0.1,100,125.0,497371.4620871734,2486857.310435867,248685731.0435867,1989485.8483486937,1505447.4793912813,458014.9684679929
C05,Unkn-03,21.6883945507992,21.1915787279377,0.503371917850643,269720.148187477,5.43091338961125,376361.869847827,114503.742117005,WC-6-11W,2,29-Jan-25,0.1,100,125.0,269720.1481874756,1348600.740937378,134860074.0937378,1078880.5927499025,1505447.4793912813,458014.9684679929
C06,Unkn-03,21.2044442676964,21.1915787279377,0.503371917850643,361993.999268818,5.55870137134521,376361.869847827,114503.742117005,WC-6-11W,2,29-Jan-25,0.1,100,125.0,361993.99926881195,1809969.9963440597,180996999.63440597,1447975.9970752478,1505447.4793912813,458014.9684679929
C07,Unkn-11,26.4506118326854,26.1903318165331,0.225942084184738,14908.740885824,4.17344096676425,17572.1804867539,2313.48432855474,INF13,2,29-Jan-25,0.1,100,245.0,14908.740885822977,74543.70442911488,7454370.442911488,30426.001807801993,35861.59283010763,4721.396588886975
C08,Unkn-11,26.0446818020236,26.1903318165331,0.225942084184738,19082.1609323907,4.28062755421884,17572.1804867539,2313.48432855474,INF13,2,29-Jan-25,0.1,100,245.0,19082.160932389652,95410.80466194825,9541080.466194825,38943.18557630541,35861.59283010763,4721.396588886975
C09,Unkn-11,26.0757018148903,26.1903318165331,0.225942084184738,18725.6396420471,4.27243666152594,17572.1804867539,2313.48432855474,INF13,2,29-Jan-25,0.1,100,245.0,18725.63964204559,93628.19821022794,9362819.821022794,38215.591106215485,35861.59283010763,4721.396588886975
C10,Unkn-19,19.5441119227503,19.2958663873322,0.303247106058098,993379.623257927,5.99711524726641,1168674.78849764,222340.987848692,CC-1-15W,2,29-Jan-25,0.1,100,50.0,993379.6232579147,4966898.116289573,496689811.6289573,9933796.232579146,11686747.884976247,2223409.878486743
C11,Unkn-19,18.957875849865,19.2958663873322,0.303247106058098,1418769.95854255,6.15191198401662,1168674.78849764,222340.987848692,CC-1-15W,2,29-Jan-25,0.1,100,50.0,1418769.9585425057,7093849.792712528,709384979.2712529,14187699.585425057,11686747.884976247,2223409.878486743
C12,Unkn-19,19.3856113893814,19.2958663873322,0.303247106058098,1093874.78369246,6.03896761097019,1168674.78849764,222340.987848692,CC-1-15W,2,29-Jan-25,0.1,100,50.0,1093874.7836924547,5469373.918462273,546937391.8462273,10938747.836924545,11686747.884976247,2223409.878486743
D04,Unkn-04,27.0686924923715,26.5146439914583,0.480709371885735,10238.4828468342,4.01023560702424,14727.9494381144,3899.67013118454,INF11,2,29-Jan-25,0.1,100,225.0,10238.482846833344,51192.41423416672,5119241.423416671,22752.184104074095,32728.77652914077,8665.93362485415
D05,Unkn-04,26.2668463418246,26.5146439914583,0.480709371885735,16671.1127976085,4.22196458997383,14727.9494381144,3899.67013118454,INF11,2,29-Jan-25,0.1,100,225.0,16671.112797607457,83355.56398803728,8335556.398803728,37046.91732801657,32728.77652914077,8665.93362485415
D06,Unkn-04,26.2083931401788,26.5146439914583,0.480709371885735,17274.2526699004,4.23739926771865,14727.9494381144,3899.67013118454,INF11,2,29-Jan-25,0.1,100,225.0,17274.25266989924,86371.26334949619,8637126.33494962,38387.22815533164,32728.77652914077,8665.93362485415
D07,Unkn-12,17.8385504140286,17.5663397795893,0.236468119580639,2802024.76184124,6.44747196888105,3328563.45370274,457786.938511607,CC-1-14W,2,29-Jan-25,0.1,100,50.0,2802024.7618412497,14010123.809206247,1401012380.9206247,28020247.618412495,33285634.537027508,4577869.385116123
D08,Unkn-12,17.4117088192872,17.5663397795893,0.236468119580639,3632288.15220169,6.56018029412966,3328563.45370274,457786.938511607,CC-1-14W,2,29-Jan-25,0.1,100,50.0,3632288.152201718,18161440.76100859,1816144076.1008592,36322881.52201718,33285634.537027508,4577869.385116123
D09,Unkn-12,17.4487601054521,17.5663397795893,0.236468119580639,3551377.44706529,6.55039683238788,3328563.45370274,457786.938511607,CC-1-14W,2,29-Jan-25,0.1,100,50.0,3551377.447065286,17756887.235326428,1775688723.5326428,35513774.470652856,33285634.537027508,4577869.385116123
D10,Unkn-20,19.3102640648508,19.2590907866086,0.117376919360373,1145152.20486833,6.0588632136116,1183373.58022242,85975.7988998649,CC-2-15W,2,29-Jan-25,0.1,100,50.0,1145152.2048683495,5725761.024341747,572576102.4341748,11451522.048683496,11833735.802224258,859757.9889988692
D11,Unkn-20,19.1248150822877,19.2590907866086,0.117376919360373,1281832.75777799,6.10783136596894,1183373.58022242,85975.7988998649,CC-2-15W,2,29-Jan-25,0.1,100,50.0,1281832.7577780113,6409163.788890056,640916378.8890057,12818327.577780113,11833735.802224258,859757.9889988692
D12,Unkn-20,19.3421932126872,19.2590907866086,0.117376919360373,1123135.77802095,6.05043226212144,1183373.58022242,85975.7988998649,CC-2-15W,2,29-Jan-25,0.1,100,50.0,1123135.778020917,5615678.890104584,561567889.0104585,11231357.780209169,11833735.802224258,859757.9889988692
E04,Unkn-05,17.1996716318865,17.1073156946087,0.167795381219188,4132083.7179025,6.61616911194119,4386222.89328563,459787.470504405,CC-1-13W,2,29-Jan-25,0.1,100,50.0,4132083.717902483,20660418.589512415,2066041858.9512415,41320837.17902483,43862228.93285671,4597874.7050440265
E05,Unkn-05,17.2086439142998,17.1073156946087,0.167795381219188,4109603.89099164,6.61379996390846,4386222.89328563,459787.470504405,CC-1-13W,2,29-Jan-25,0.1,100,50.0,4109603.890991739,20548019.454958692,2054801945.4958692,41096038.909917384,43862228.93285671,4597874.7050440265
E06,Unkn-05,16.9136315376398,17.1073156946087,0.167795381219188,4916981.07096275,6.69169853637797,4386222.89328563,459787.470504405,CC-1-13W,2,29-Jan-25,0.1,100,50.0,4916981.07096279,24584905.354813952,2458490535.4813952,49169810.709627904,43862228.93285671,4597874.7050440265
E07,Unkn-13,17.2250521936332,16.9188972560451,0.27184705230494,4068809.21964624,6.60946732691464,4944880.69413531,783697.260455997,CC-2-14W,2,29-Jan-25,0.1,100,45.0,4068809.219646321,20344046.098231606,2034404609.8231606,45208991.32940357,54943118.82372675,8707747.338399792
E08,Unkn-13,16.8258421621599,16.9188972560451,0.27184705230494,5186560.9508448,6.7148794859547,4944880.69413531,783697.260455997,CC-2-14W,2,29-Jan-25,0.1,100,45.0,5186560.950845035,25932804.754225172,2593280475.4225173,57628455.009389274,54943118.82372675,8707747.338399792
E09,Unkn-13,16.7057974123422,16.9188972560451,0.27184705230494,5579271.91191488,6.74657752774242,4944880.69413531,783697.260455997,CC-2-14W,2,29-Jan-25,0.1,100,45.0,5579271.911914868,27896359.55957434,2789635955.957434,61991910.13238743,54943118.82372675,8707747.338399792
E10,Unkn-21,19.8155322729391,19.7807033964959,0.0534136298003609,842260.034403575,5.92544619372278,860590.242750397,28198.3607699373,CC-3-15W,2,29-Jan-25,0.1,100,70.0,842260.0344035556,4211300.172017777,421130017.20177776,6016143.102882539,6147073.162502731,201416.8626425002
E11,Unkn-21,19.8073710166738,19.7807033964959,0.0534136298003609,846449.76504772,5.92760118877697,860590.242750397,28198.3607699373,CC-3-15W,2,29-Jan-25,0.1,100,70.0,846449.7650476939,4232248.825238469,423224882.5238469,6046069.75034067,6147073.162502731,201416.8626425002
E12,Unkn-21,19.7192068998749,19.7807033964959,0.0534136298003609,893060.928799898,5.95088108950323,860590.242750397,28198.3607699373,CC-3-15W,2,29-Jan-25,0.1,100,70.0,893060.9287998979,4465304.643999489,446530464.3999489,6379006.634284984,6147073.162502731,201416.8626425002
F04,Unkn-06,17.743118986355,17.711702566417,0.0274432104782546,2969414.44386661,6.47267081670113,3026959.18104381,50279.4943327379,CC-2-13W,2,29-Jan-25,0.1,100,75.0,2969414.443866706,14847072.21933353,1484707221.933353,19796096.292444706,20179727.87362575,335196.6288846451
F05,Unkn-06,17.6995840946089,17.711702566417,0.0274432104782546,3049062.21924914,6.48416628668118,3026959.18104381,50279.4943327379,CC-2-13W,2,29-Jan-25,0.1,100,75.0,3049062.219249215,15245311.096246075,1524531109.6246076,20327081.461661436,20179727.87362575,335196.6288846451
F06,Unkn-06,17.6924046182872,17.711702566417,0.0274432104782546,3062400.88001567,6.48606204089622,3026959.18104381,50279.4943327379,CC-2-13W,2,29-Jan-25,0.1,100,75.0,3062400.8800156675,15312004.400078338,1531200440.0078337,20416005.866771117,20179727.87362575,335196.6288846451
F07,Unkn-14,20.4856132918193,20.3331595271681,0.143923327948729,560415.374696129,5.74851004141405,616406.59759596,53429.4710122616,CC-3-14W,2,29-Jan-25,0.1,100,70.0,560415.3746961168,2802076.8734805835,280207687.34805834,4002966.962115119,4402904.2685425645,381639.0786590901
F08,Unkn-14,20.1996411833443,20.3331595271681,0.143923327948729,666839.802305541,5.82402151408004,616406.59759596,53429.4710122616,CC-3-14W,2,29-Jan-25,0.1,100,70.0,666839.8023055507,3334199.011527753,333419901.1527753,4763141.445039647,4402904.2685425645,381639.0786590901
F09,Unkn-14,20.3142241063405,20.3331595271681,0.143923327948729,621964.615786211,5.7937656779289,616406.59759596,53429.4710122616,CC-3-14W,2,29-Jan-25,0.1,100,70.0,621964.6157862097,3109823.0789310485,310982307.89310485,4442604.398472927,4402904.2685425645,381639.0786590901
F10,Unkn-22,19.6938691876857,19.6447891233768,0.150006087228079,906925.389129653,5.95757156002359,937023.747307468,87056.2498964563,WC-4-15W,2,29-Jan-25,0.1,100,100.0,906925.3891296433,4534626.945648217,453462694.56482166,4534626.945648217,4685118.7365373075,435281.24948239845
F11,Unkn-22,19.4763908739699,19.6447891233768,0.150006087228079,1035135.29616924,6.01499711746403,937023.747307468,87056.2498964563,WC-4-15W,2,29-Jan-25,0.1,100,100.0,1035135.2961692597,5175676.480846298,517567648.0846298,5175676.480846298,4685118.7365373075,435281.24948239845
F12,Unkn-22,19.7641073084749,19.6447891233768,0.150006087228079,869010.55662351,5.93902505223174,937023.747307468,87056.2498964563,WC-4-15W,2,29-Jan-25,0.1,100,100.0,869010.5566234816,4345052.783117408,434505278.3117408,4345052.783117408,4685118.7365373075,435281.24948239845
G04,Unkn-07,20.1349015790544,19.8879191547292,0.234322400966823,693611.24953632,5.84111612825698,811411.793945597,113867.696788588,CC-3-13W,2,29-Jan-25,0.1,100,100.0,693611.2495363303,3468056.2476816517,346805624.7681652,3468056.2476816517,4057058.969728038,569338.4839429681
G05,Unkn-07,19.8601188467878,19.8879191547292,0.234322400966823,819734.144340455,5.91367302510713,811411.793945597,113867.696788588,CC-3-13W,2,29-Jan-25,0.1,100,100.0,819734.1443404536,4098670.7217022674,409867072.17022675,4098670.7217022674,4057058.969728038,569338.4839429681
G06,Unkn-07,19.6687370383453,19.8879191547292,0.234322400966823,920889.987960017,5.96420775128738,811411.793945597,113867.696788588,CC-3-13W,2,29-Jan-25,0.1,100,100.0,920889.9879600392,4604449.939800195,460444993.98001957,4604449.939800195,4057058.969728038,569338.4839429681
G07,Unkn-15,20.5487785606315,20.4696167280456,0.142585607871441,539300.885629351,5.73183113347864,567334.70376548,50346.4178650339,WC-4-14W,2,29-Jan-25,0.1,100,75.0,539300.8856293254,2696504.428146627,269650442.8146627,3595339.237528836,3782231.358436402,335642.7857668894
G08,Unkn-15,20.3050129787649,20.4696167280456,0.142585607871441,625457.627983107,5.79619789347559,567334.70376548,50346.4178650339,WC-4-14W,2,29-Jan-25,0.1,100,75.0,625457.6279830869,3127288.139915434,312728813.9915434,4169717.5198872457,3782231.358436402,335642.7857668894
G09,Unkn-15,20.5550586447406,20.4696167280456,0.142585607871441,537245.597683983,5.73017286546755,567334.70376548,50346.4178650339,WC-4-14W,2,29-Jan-25,0.1,100,75.0,537245.5976839685,2686227.9884198424,268622798.8419843,3581637.3178931237,3782231.358436402,335642.7857668894
G10,Unkn-23,20.4087140530538,20.2531369255228,0.184095230305396,587239.729474751,5.76881542992568,648234.411695661,73891.8836161239,WC-5-15W,2,29-Jan-25,0.1,100,65.0,587239.7294747534,2936198.6473737666,293619864.7373767,4517228.688267333,4986418.551505106,568399.1047394329
G11,Unkn-23,20.0498976867368,20.2531369255228,0.184095230305396,730401.347539542,5.86356156577001,648234.411695661,73891.8836161239,WC-5-15W,2,29-Jan-25,0.1,100,65.0,730401.3475395477,3652006.737697738,365200673.76977384,5618471.904150367,4986418.551505106,568399.1047394329
G12,Unkn-23,20.3007990367778,20.2531369255228,0.184095230305396,627062.15807269,5.79731059277646,648234.411695661,73891.8836161239,WC-5-15W,2,29-Jan-25,0.1,100,65.0,627062.1580726901,3135310.7903634505,313531079.03634506,4823555.0620976165,4986418.551505106,568399.1047394329
H04,Unkn-08,20.6059041507215,20.1813977781067,0.367676024352058,520891.192311645,5.71674701406009,685071.74393702,142208.559925745,WC-4-13W,2,29-Jan-25,0.1,100,110.0,520891.19231162214,2604455.9615581105,260445596.15581104,2367687.2377801,3113962.4724409543,646402.5451170694
H05,Unkn-08,19.9635398089823,20.1813977781067,0.367676024352058,769776.282005999,5.88636452568218,685071.74393702,142208.559925745,WC-4-13W,2,29-Jan-25,0.1,100,110.0,769776.2820059898,3848881.4100299487,384888141.0029949,3498983.1000272264,3113962.4724409543,646402.5451170694
H06,Unkn-08,19.9747493746163,20.1813977781067,0.367676024352058,764547.757493416,5.88340461881055,685071.74393702,142208.559925745,WC-4-13W,2,29-Jan-25,0.1,100,110.0,764547.757493418,3822738.7874670895,382273878.7467089,3475217.079515536,3113962.4724409543,646402.5451170694
H07,Unkn-16,20.2378403359332,20.0689246342494,0.167246685058732,651530.807488937,5.81393495605185,724488.543518044,73462.139255113,WC-5-14W,2,29-Jan-25,0.1,100,85.0,651530.8074889212,3257654.037444606,325765403.7444606,3832534.1616995363,4261697.314811989,432130.2309124721
H08,Unkn-16,20.0655350753387,20.0689246342494,0.167246685058732,723489.918699323,5.85943248392256,724488.543518044,73462.139255113,WC-5-14W,2,29-Jan-25,0.1,100,85.0,723489.9186993248,3617449.593496624,361744959.34966236,4255823.051172499,4261697.314811989,432130.2309124721
H09,Unkn-16,19.9033984914763,20.0689246342494,0.167246685058732,798444.90436587,5.90224495359233,724488.543518044,73462.139255113,WC-5-14W,2,29-Jan-25,0.1,100,85.0,798444.9043658684,3992224.521829342,399222452.1829342,4696734.731563932,4261697.314811989,432130.2309124721
H10,Unkn-24,21.1035932232936,21.21999007722,0.10090011047224,384885.259969748,5.58533127914764,359043.852205846,22398.7612355148,WC-6-15W,2,29-Jan-25,0.1,100,100.0,384885.25996975123,1924426.299848756,192442629.98487562,1924426.2998487563,1795219.2610292127,111993.80617760499
H11,Unkn-24,21.273754364994,21.21999007722,0.10090011047224,347056.28200693,5.54039990990032,359043.852205846,22398.7612355148,WC-6-15W,2,29-Jan-25,0.1,100,100.0,347056.28200692957,1735281.4100346477,173528141.00346476,1735281.4100346477,1795219.2610292127,111993.80617760499
H12,Unkn-24,21.2826226433723,21.21999007722,0.10090011047224,345190.01464086,5.53805822432853,359043.852205846,22398.7612355148,WC-6-15W,2,29-Jan-25,0.1,100,100.0,345190.0146408468,1725950.073204234,172595007.3204234,1725950.073204234,1795219.2610292127,111993.80617760499
