,Temperature,A1,A2,A3,A4,A5,A6,A7,A8,A9,A10,A11,A12,B1,B2,B3,B4,B5,B6,B7,B8,B9,B10,B11,B12,C1,C2,C3,C4,C5,C6,C7,C8,C9,C10,C11,C12,D1,D2,D3,D4,D5,D6,D7,D8,D9,D10,D11,D12,E1,E2,E3,E4,E5,E6,E7,E8,E9,E10,E11,E12,F1,F2,F3,F4,F5,F6,F7,F8,F9,F10,F11,F12,G1,G2,G3,G4,G5,G6,G7,G8,G9,G10,G11,G12,H1,H2,H3,H4,H5,H6,H7,H8,H9,H10,H11,H12
,65,21003.3244067087,20199.5408033589,22616.6880576544,19672.8566702384,20100.9846493211,18625.5380228587,18920.9834598629,20054.4774257472,20483.9117487766,13434.8417674954,19390.5648964743,19894.8510315108,21385.3667745878,21231.3166410367,22714.2517184534,21466.2276246407,21279.9627258788,21600.9049754162,19494.377656395,20188.790444575,20598.1782705741,20655.2356812234,20018.4567980716,19540.8578281073,21402.935369666,23221.9723819119,23088.0103952233,22161.9923961405,22573.5485993274,22193.395071718,19252.2927291873,20554.2234946705,20517.090633568,21156.1206452207,20159.0480530111,19202.9291853297,21899.5977223432,21680.5331550639,22717.5231958916,20015.5682335398,19405.4448841552,20565.0979008823,20347.3252237556,20519.5281110975,20650.664922532,20107.3969201428,18817.9976731579,18798.7298170172,21303.530539411,22188.7777990771,22498.0921083755,22258.5477495781,21457.8721671751,22097.6920267224,21082.0919457267,20990.2014978144,21538.047034298,21105.5455660907,20399.9503144118,21187.9504737664,22163.7106861665,21234.4195269413,22227.3021940878,20904.4713895894,21126.5162988695,20637.272967307,18137.8995776181,20969.6524776695,20730.1771674818,21548.8710521487,21130.2075399465,20533.3672800436,20024.5092969766,20584.4294628393,21328.3346921782,20439.6864552673,20443.2338489406,20431.9853132049,20214.7841001606,20500.8143119743,20913.6760627896,20395.0213924459,20794.6659343198,19962.1321765302,13275.5739703134,12944.7696386319,15348.1255780914,19535.1635728182,20713.137414703,20550.6759110883,20300.1742102705,19881.8337701296,21570.197461879,18923.6403453053,18468.1172180511,20156.4304595137
,65.5,20949.0717203453,20112.5341809108,22534.3677869222,19701.2307087867,20076.4399161191,18597.0996727696,18881.9751699512,20042.2569696118,20478.2152223601,13477.70033196,19410.1158667714,19920.8937075823,21312.7773597798,21153.3557031715,22624.164977484,21442.5635750299,21271.4431918721,21592.1096642718,19483.3762997161,20193.5845087504,20611.248957075,20681.9564662452,20051.3397366556,19579.8798665932,21332.6507252554,23120.6921358385,22994.9057918243,22132.4881078163,22527.8456563871,22138.2342543423,19274.9466583116,20584.4519545989,20552.8249065926,21172.9600271265,20174.421677729,19216.6924043689,21833.9840869929,21585.7470839926,22623.3305456631,20038.8568199683,19460.2472665259,20611.1885161389,20341.05985825,20544.1691630662,20683.3670442194,20153.5991916045,18859.140361643,18883.3204718514,21213.2037765012,22074.5701126315,22413.8427409863,22238.6072085715,21426.3386250546,22069.7307327126,21044.689737603,20980.4735783146,21516.4102043799,21033.6394892542,20362.9532343061,21149.683656093,22083.6326375764,21126.9592475951,22132.6838331644,20902.6820625471,21122.3725471351,20628.4824739683,18094.7582504384,20984.4191315752,20738.2533265395,21522.8866910509,21130.9195325076,20546.3822953837,19980.9266940498,20480.6090059211,21209.3647925609,20449.7998396706,20455.3071027453,20410.4939893007,20202.6173565359,20530.3285739954,20931.1476839091,20385.5467643686,20803.7477115676,20000.5825511337,13190.2147247413,12811.240148317,15206.5958084707,19535.4774015785,20691.4124294465,20550.3837755599,20264.4139701682,19856.1048824732,21555.9801177603,18941.7791378988,18520.4843772015,20206.2190474808
,66,20894.8190339819,20025.5275584626,22452.04751619,19729.604747335,20051.8951829172,18568.6613226805,18842.9668800396,20030.0365134763,20472.5186959436,13520.5588964246,19429.6668370686,19946.9363836537,21240.1879449717,21075.3947653062,22534.0782365147,21418.899525419,21262.9236578654,21583.3143531274,19472.3749430372,20198.3785729258,20624.3196435759,20708.677251267,20084.2226752396,19618.901905079,21262.3660808447,23019.4118897651,22901.8011884252,22102.9838194921,22482.1427134469,22083.0734369666,19297.6005874358,20614.6804145273,20588.5591796172,21189.7994090323,20189.7953024469,19230.4556234082,21768.3704516426,21490.9610129213,22529.1378954345,20062.1454063968,19515.0496488967,20657.2791313955,20334.7944927444,20568.810215035,20716.0691659068,20199.8014630662,18900.2830501282,18967.9111266856,21122.8770135913,21960.3624261859,22329.5933735972,22218.6666675648,21394.8050829342,22041.7694387027,21007.2875294792,20970.7456588148,21494.7733744618,20961.7334124177,20325.9561542004,21111.4168384196,22003.5545889863,21019.498968249,22038.065472241,20900.8927355049,21118.2287954008,20619.6919806297,18051.6169232586,20999.185785481,20746.3294855972,21496.9023299531,21131.6315250688,20559.3973107238,19937.344091123,20376.7885490029,21090.3948929436,20459.913224074,20467.3803565501,20389.0026653964,20190.4506129112,20559.8428360165,20948.6193050286,20376.0721362913,20812.8294888155,20039.0329257372,13104.8554791691,12677.7106580021,15065.0660388499,19535.7912303388,20669.68744419,20550.0916400315,20228.653730066,19830.3759948168,21541.7627736416,18959.9179304923,18572.851536352,20256.0076354479
,66.5,20840.5663476185,19938.5209360145,22369.7272454578,19757.9787858833,20027.3504497153,18540.2229725913,18803.958590128,20017.8160573408,20466.8221695272,13563.4174608892,19449.2178073657,19972.9790597251,21167.5985301636,20997.433827441,22443.9914955453,21395.2354758082,21254.4041238586,21574.519041983,19461.3735863583,20203.1726371012,20637.3903300768,20735.3980362889,20117.1056138237,19657.9239435649,21192.0814364341,22918.1316436918,22808.6965850261,22073.4795311679,22436.4397705066,22027.9126195909,19320.2545165601,20644.9088744557,20624.2934526418,21206.6387909382,20205.1689271648,19244.2188424474,21702.7568162923,21396.17494185,22434.9452452059,20085.4339928254,19569.8520312674,20703.3697466521,20328.5291272388,20593.4512670037,20748.7712875943,20246.0037345279,18941.4257386134,19052.5017815198,21032.5502506814,21846.1547397403,22245.344006208,22198.7261265582,21363.2715408137,22013.8081446929,20969.8853213555,20961.0177393151,21473.1365445436,20889.8273355812,20288.9590740947,21073.1500207462,21923.4765403962,20912.0386889028,21943.4471113176,20899.1034084626,21114.0850436665,20610.9014872911,18008.4755960788,21013.9524393867,20754.4056446548,21470.9179688553,21132.3435176299,20572.412326064,19893.7614881962,20272.9680920847,20971.4249933263,20470.0266084774,20479.4536103548,20367.5113414922,20178.2838692864,20589.3570980375,20966.0909261481,20366.5975082141,20821.9112660633,20077.4833003407,13019.4962335969,12544.1811676873,14923.5362692292,19536.1050590991,20647.9624589336,20549.7995045031,20192.8934899638,19804.6471071604,21527.5454295228,18978.0567230857,18625.2186955024,20305.796223415
,67,20786.3136612551,19851.5143135663,22287.4069747257,19786.3528244316,20002.8057165134,18511.7846225022,18764.9503002164,20005.5956012054,20461.1256431107,13606.2760253538,19468.7687776628,19999.0217357966,21095.0091153556,20919.4728895757,22353.9047545759,21371.5714261973,21245.8845898519,21565.7237308386,19450.3722296794,20207.9667012766,20650.4610165777,20762.1188213107,20149.9885524077,19696.9459820507,21121.7967920235,22816.8513976184,22715.591981627,22043.9752428437,22390.7368275663,21972.7518022152,19342.9084456844,20675.1373343841,20660.0277256664,21223.478172844,20220.5425518827,19257.9820614867,21637.1431809421,21301.3888707787,22340.7525949773,20108.7225792539,19624.6544136382,20749.4603619088,20322.2637617332,20618.0923189725,20781.4734092817,20292.2060059895,18982.5684270986,19137.0924363541,20942.2234877715,21731.9470532946,22161.0946388189,22178.7855855516,21331.7379986932,21985.8468506831,20932.4831132317,20951.2898198153,21451.4997146255,20817.9212587447,20251.961993989,21034.8832030728,21843.3984918061,20804.5784095566,21848.8287503942,20897.3140814204,21109.9412919322,20602.1109939524,17965.334268899,21028.7190932925,20762.4818037125,21444.9336077576,21133.0555101911,20585.4273414041,19850.1788852695,20169.1476351665,20852.4550937091,20480.1399928807,20491.5268641596,20346.0200175879,20166.1171256617,20618.8713600586,20983.5625472676,20357.1228801368,20830.9930433112,20115.9336749442,12934.1369880248,12410.6516773724,14782.0064996085,19536.4188878594,20626.2374736771,20549.5073689747,20157.1332498616,19778.918219504,21513.3280854041,18996.1955156792,18677.5858546529,20355.5848113821
,67.5,20732.0609748915,19764.5076911183,22205.0867039937,19814.7268629801,19978.2609833114,18483.3462724132,18725.9420103051,19993.3751450696,20455.4291166942,13649.1345898185,19488.31974796,20025.0644118682,21022.4197005473,20841.5119517108,22263.8180136067,21347.9073765864,21237.3650558451,21556.9284196942,19439.3708730004,20212.7607654519,20663.5317030788,20788.8396063322,20182.8714909919,19735.9680205366,21051.5121476126,22715.5711515451,22622.4873782281,22014.4709545195,22345.0338846262,21917.5909848396,19365.5623748088,20705.3657943128,20695.761998691,21240.3175547495,20235.9161766008,19271.7452805257,21571.5295455913,21206.6027997073,22246.5599447489,20132.0111656823,19679.4567960088,20795.5509771652,20315.9983962277,20642.733370941,20814.1755309691,20338.4082774515,19023.7111155836,19221.6830911881,20851.8967248617,21617.7393668491,22076.8452714298,22158.845044545,21300.2044565729,21957.8855566736,20895.0809051081,20941.5619003154,21429.8628847074,20746.0151819081,20214.9649138834,20996.6163853991,21763.3204432161,20697.1181302107,21754.2103894709,20895.5247543778,21105.7975401976,20593.3205006138,17922.1929417194,21043.4857471983,20770.5579627699,21418.9492466598,21133.767502752,20598.4423567441,19806.5962823425,20065.3271782484,20733.4851940919,20490.2533772842,20503.6001179647,20324.5286936841,20153.9503820371,20648.3856220796,21001.0341683868,20347.6482520595,20840.0748205593,20154.3840495477,12848.7777424526,12277.1221870574,14640.4767299877,19536.7327166196,20604.5124884206,20549.2152334463,20121.3730097596,19753.1893318474,21499.1107412853,19014.3343082723,18729.9530138034,20405.3733993491
,68,20677.8082885281,19677.5010686701,22122.7664332615,19843.1009015284,19953.7162501095,18454.9079223241,18686.9337203935,19981.1546889341,20449.7325902777,13691.9931542831,19507.8707182572,20051.1070879396,20949.8302857392,20763.5510138455,22173.7312726373,21324.2433269756,21228.8455218383,21548.1331085498,19428.3695163215,20217.5548296273,20676.6023895797,20815.5603913541,20215.754429576,19774.9900590225,20981.227503202,22614.2909054717,22529.382774829,21984.9666661953,22299.3309416859,21862.4301674639,19388.2163039331,20735.5942542412,20731.4962717156,21257.1569366553,20251.2898013187,19285.508499565,21505.915910241,21111.816728636,22152.3672945203,20155.2997521109,19734.2591783796,20841.6415924218,20309.7330307221,20667.3744229097,20846.8776526565,20384.6105489132,19064.8538040688,19306.2737460223,20761.5699619518,21503.5316804035,21992.5959040406,22138.9045035384,21268.6709144524,21929.9242626637,20857.6786969843,20931.8339808156,21408.2260547893,20674.1091050715,20177.9678337777,20958.3495677258,21683.242394626,20589.6578508645,21659.5920285475,20893.7354273356,21101.6537884632,20584.5300072751,17879.0516145396,21058.252401104,20778.6341218275,21392.964885562,21134.4794953132,20611.4573720842,19763.0136794157,19961.5067213302,20614.5152944746,20500.3667616875,20515.6733717695,20303.0373697798,20141.7836384124,20677.8998841007,21018.5057895063,20338.1736239822,20849.1565978072,20192.8344241512,12763.4184968805,12143.5926967425,14498.946960367,19537.0465453799,20582.7875031642,20548.9230979179,20085.6127696573,19727.460444191,21484.8933971665,19032.4731008658,18782.3201729538,20455.1619873162
,68.5,20625.1776546532,19597.7087372657,22043.8600480212,19860.2370849788,19928.2366550461,18422.7560714933,18642.4981425161,19965.0792204838,20439.386955709,13739.0564484814,19517.2107089272,20067.0235423431,20884.2984860985,20693.3222186972,22089.3592973118,21298.0090674054,21217.2762267192,21539.769037614,19405.06781478,20216.168334771,20681.3620748304,20832.4188490878,20241.2074749884,19803.7000487076,20914.7901752393,22521.429938514,22445.5749723937,21958.3553270159,22253.0992544435,21808.1769485808,19390.9748881585,20758.7731393526,20754.6308631427,21264.7299643644,20263.0801330085,19294.4600508881,21451.9310092115,21013.5304557726,22063.5898426265,20177.9938451898,19777.3212495643,20884.4644744484,20293.4138456055,20686.4812775704,20875.3472841549,20424.1331633453,19101.6730968786,19400.4543632971,20681.3934941977,21397.1304965783,21912.4766197974,22122.3047556251,21238.3402050656,21907.2037381787,20817.7766363436,20924.7806018517,21391.6677605339,20600.6250553557,20142.2408830599,20916.3346421412,21614.4870812843,20487.4674780491,21574.368343255,20893.0485714069,21097.7499175104,20577.3498295195,17828.4170946088,21071.1065967098,20785.7736761573,21365.0395638939,21134.0077952728,20620.1636006396,19730.0693147684,19859.8344054637,20500.1065921489,20503.4743412952,20518.0406923929,20275.327811296,20119.8254418341,20703.7159308387,21030.6321183256,20326.3512875202,20857.3314101827,20225.5170331215,12640.9414478383,11970.2686824997,14331.1681532972,19534.7480804304,20558.482457264,20547.8656444345,20041.7879104573,19703.1644253261,21467.901644933,19046.2399227484,18829.8877065222,20497.1887685046
,69,20571.4179451143,19533.0748799029,21966.8954860376,19869.0499524225,19904.3249005097,18390.4500695127,18595.1471419186,19947.9131912372,20426.4629145936,13798.123036479,19523.1534662574,20073.3743434218,20822.2648039346,20627.2089292958,22007.7878056056,21268.7658248009,21200.6919537953,21531.0466407407,19376.4161395094,20213.3897608227,20677.5276795077,20839.772975579,20265.0587100429,19822.2719632193,20851.4907737393,22433.7038548376,22366.1944770005,21930.9858836182,22207.6071764087,21754.9439737639,19384.2870317242,20773.2198686489,20767.4157205805,21260.7558855046,20277.3954526534,19298.0409621461,21404.5630792802,20910.2771022764,21978.194283519,20200.6718529401,19806.9607683365,20920.8818238546,20269.3917740915,20700.3499314467,20897.4198238221,20460.0590877056,19133.7162753162,19501.596314869,20608.1818566937,21298.0704963227,21827.9167759413,22107.0578959461,21209.7320644949,21888.3932908361,20775.8734194614,20916.8336424972,21376.4174380111,20525.9843823211,20107.7434986207,20872.0752746882,21551.3098880648,20391.044095247,21493.0589986906,20893.7695163715,21093.7540846357,20568.3899879649,17771.2671728252,21080.3432095296,20791.1315061776,21335.4593593058,21130.5868701651,20624.5403885052,19688.2664075566,19757.6756436865,20390.6277418926,20499.119925186,20514.3979911607,20246.8245815902,20093.0629161048,20724.4566726758,21037.1727509101,20312.7612093865,20866.075362886,20253.4713192504,12489.3670519695,11765.0774233554,14144.0480660501,19535.3788975679,20538.4912137325,20547.6645635115,19988.2642083711,19683.3461502904,21445.6048833468,19059.9954148114,18872.0968258071,20526.0931041596
,69.5,20510.4800052589,19482.621402237,21885.1098958678,19863.0088920033,19876.3169898236,18353.7950119986,18545.3335223529,19929.0889535099,20408.7936572249,13872.2877930193,19528.4603456778,20066.3887036451,20760.0994866658,20558.3762579203,21922.7604619435,21233.4835199907,21176.7251588276,21516.2658001202,19341.7744301061,20205.4135887846,20664.4300475742,20839.2822142473,20278.8559422106,19824.8929498079,20785.5957440403,22344.9990775583,22282.3044882199,21892.8482793892,22157.040749089,21697.2484959759,19380.5354234327,20773.8575568157,20763.0938388097,21239.8489050582,20286.3212367524,19293.7885481934,21351.4298177481,20795.587423172,21890.1097738934,20217.6892000389,19817.7351880524,20941.7448975549,20236.8300499718,20706.616360754,20913.5533672542,20484.1030910044,19160.4979810238,19601.9607849119,20537.4972755715,21199.7925101696,21731.9580370016,22081.5256429433,21174.9040789136,21866.0221184398,20729.627424036,20899.6047203492,21355.1194074722,20445.4249484156,20065.833815966,20818.0504870752,21483.527400871,20293.3999929051,21406.6292486273,20884.9356198328,21083.3816528153,20554.58849209,17709.9533882245,21080.7040242106,20790.102289352,21299.3075949003,21119.5407119505,20615.3291988351,19626.6344648963,19652.3197730263,20281.6587701844,20483.9138656788,20501.9145266134,20213.020288936,20060.3975094384,20734.5013805252,21032.82079011,20289.8020558787,20866.9941872748,20272.080436074,12311.7631617579,11534.0063561103,13941.0121106159,19534.6923252416,20519.8407727852,20544.3338720179,19927.5588709013,19666.1564892179,21412.8377840237,19069.1320992016,18902.7433108684,20537.642547907
,70,20430.9570112187,19440.4162280723,21790.7203984615,19837.6340363283,19841.441952029,18309.4775507852,18486.3452170594,19905.9590860296,20378.9581262038,13955.9440811794,19528.5569150475,20045.5554367727,20691.3586944308,20479.9517824069,21823.8635129228,21185.0610877983,21135.3617285383,21489.2429622108,19302.3615209217,20184.9431162437,20633.1358460033,20822.7137862775,20278.0545927598,19809.6046373255,20709.0223952623,22247.3229027152,22183.9994562491,21834.9091427719,22085.0700418706,21630.0806628332,19376.4035209671,20749.9094062539,20737.8759529241,21197.4158282974,20282.2147037004,19273.7719304439,21282.7688042627,20666.6118996838,21791.0568118555,20217.3931186855,19804.8355179967,20940.4214914872,20194.6135374268,20695.9638843951,20911.9511247538,20495.5234336315,19174.416908326,19689.6105235592,20461.2127702619,21092.2067807539,21615.6401677529,22038.5582652853,21126.7012613217,21831.4914992547,20673.9929777798,20863.7899369019,21318.3439099034,20353.7892228727,20001.3117052855,20748.4002794586,21403.5354425217,20186.3735833294,21303.9096230235,20860.4981226815,21061.1439885014,20527.7033773638,17643.4795319119,21062.6244856043,20774.8222295425,21245.4655633002,21092.0069283064,20588.8593074335,19539.7096606492,19534.9716665631,20164.1286085111,20447.8996114492,20471.820807645,20168.7482430682,20019.7613622146,20725.6747928457,21013.0336332201,20253.4417405612,20854.0659175208,20272.3795462124,12115.6211665656,11281.9584411901,13722.5402756749,19520.0654065928,20494.893858425,20530.6182161031,19857.8542438288,19641.4267631067,21365.0619619191,19067.1096192103,18915.6386726755,20523.9308991819
,70.5,20326.9571876369,19399.1631500977,21679.2814369948,19788.2519247937,19790.4855592255,18252.355720984,18419.0443715704,19871.7200327935,20328.9873899189,14041.9096247518,19514.9993210397,20007.024753015,20605.5950870263,20383.8930329039,21704.1214740336,21116.3565707749,21069.1927863441,21439.1238328141,19251.1048294013,20143.3674680163,20577.992061841,20783.706503452,20256.5767132734,19766.69505202,20615.9576991176,22130.08981226,22064.1387685233,21748.5518014733,21985.3267148485,21544.1686200035,19367.4578040738,20694.5480867278,20681.6943276598,21129.4296117085,20253.8866699951,19233.3760729815,21188.5361193121,20517.0555308882,21670.2947923779,20191.8848449608,19764.367449716,20909.6103852797,20137.8505968712,20659.8053217398,20884.5722876229,20482.33540771,19166.8034520255,19737.0423467031,20371.6317756987,20966.0184675931,21474.4603075835,21969.9994249237,21057.2612351422,21773.2945950151,20603.5950593753,20803.6438923678,21254.559113653,20243.9747060669,19908.8027842665,20654.7741514895,21298.012885203,20061.810079667,21175.9844404084,20809.7424407339,21017.5328046776,20478.9212457576,17570.2012981395,21018.2467076371,20736.7960115136,21169.0130983874,21037.3173112576,20539.4586665649,19419.6666375571,19399.1204886944,20032.7289417724,20384.7740422955,20417.9717389431,20106.2549874214,19967.4422886413,20690.0388104268,20969.6780098967,20196.3257411795,20817.4460607517,20247.1038319659,11903.4219694738,11017.4640987229,13489.4670878327,19487.4429407706,20453.8739205756,20499.3510179341,19773.0616944082,19601.3625109205,21292.6433235016,19044.3527447525,18903.0943910506,20481.6231577376
,71,20198.3775217055,19346.4147120375,21546.9395958046,19717.0737795483,19716.1879068875,18177.5686113225,18334.0873657624,19818.9828565326,20253.1036833161,14119.742775258,19485.2218323214,19947.3294551254,20497.8662205745,20262.2734392192,21558.3340264117,21020.3937949774,20973.62886133,21359.6513856083,19181.3893457784,20078.004235809,20493.8720443713,20717.2026313104,20206.763736438,19692.2897213226,20501.9099991072,21985.8350650934,21915.1491571573,21629.339084754,21854.7885086356,21433.2594993942,19349.6944177342,20604.8715914223,20592.8197956665,21032.6279582607,20196.607446425,19167.8518141139,21061.3027145932,20349.0283806447,21524.8029925173,20134.639444007,19695.4447489937,20845.3988644413,20059.977739101,20593.6388305431,20827.3107305155,20441.2097074303,19133.0478900461,19737.3652138929,20256.3177441599,20815.5855476254,21307.0697529439,21872.6209627282,20964.029853616,21686.7105847764,20514.5075907646,20712.8442916967,21160.352484977,20109.2466935366,19786.2926503046,20535.5286848298,21160.066480354,19913.1852634584,21016.6316932555,20726.9524457486,20949.1921057488,20402.697875816,17487.8753334412,20939.9340722189,20672.0011751846,21063.9489936479,20952.0630093508,20460.4591970185,19262.6607004743,19239.2199910578,19879.7423319739,20290.2085277242,20336.5934956991,20017.5059074059,19896.90174372,20623.3003973817,20898.2596028573,20111.4470463803,20750.818399088,20194.6987684981,11681.3745804353,10750.64986353,13247.5190693337,19431.2886963507,20387.7364556461,20441.2939134232,19667.0052903798,19536.0797661351,21190.4954336206,18997.5540850348,18863.0284333668,20407.5617492998
,71.5,20044.379993674,19267.7215227869,21390.3514259103,19625.3128200709,19613.8132359683,18080.2134379049,18231.2461791048,19742.9659288951,20147.1495648121,14175.0041616108,19433.3897597006,19866.0232287428,20367.6092234275,20115.2690184899,21386.3606926736,20895.8155387232,20849.5968468568,21250.9571413169,19089.8592291957,19984.1186261566,20381.7188004635,20622.6777354377,20127.1766765275,19588.8963626549,20368.291821292,21814.9727166271,21739.5470285399,21478.479906743,21692.4625707246,21295.6473288138,19316.4423952186,20482.404658782,20470.489574074,20909.375528421,20105.4839611788,19077.7363409718,20900.6094112779,20163.1322110889,21353.180301793,20045.1411575942,19602.3588628521,20749.446469962,19958.5727328581,20497.0442706366,20741.3205025366,20368.8372545929,19070.4907059487,19695.0635230377,20114.2346991313,20640.2836806724,21115.9323923847,21744.7994984341,20843.3785773572,21569.4452963082,20403.1905777599,20592.4635974362,21036.9646805389,19950.9196096986,19632.1870824275,20389.3495590834,20993.3092928735,19740.6374237713,20827.8823791564,20611.3787371045,20853.938248576,20300.7108496254,17395.2270471732,20831.657181056,20579.2067468933,20928.7069732875,20837.0483906342,20352.6167425222,19079.0237155016,19055.7271713545,19702.1746342757,20166.2500116077,20223.6309192144,19899.8672655962,19805.2108880954,20526.721823939,20800.2122142245,19997.3865142445,20652.5023313206,20112.448199648,11455.8780709296,10490.710603163,13000.7832207335,19345.1827016463,20291.1821429815,20352.9820608786,19542.5459202169,19438.5177142076,21061.8985613577,18920.8310134799,18795.401752376,20308.2597704012
,72,19866.5060751901,19152.263170258,21212.1130305584,19518.3580323246,19485.7305108336,17960.6625535825,18107.4475361083,19639.8731751294,20012.2313156267,14197.5433747937,19352.1343318786,19764.3476677783,20215.9071456381,19946.8874323674,21191.8581229152,20744.8439748716,20698.5968881068,21115.1640386166,18977.3688338878,19865.745890813,20240.6945015122,20499.8915430173,20021.2575360825,19463.6841897253,20227.8274001221,21621.115730057,21541.1656309896,21301.6424986281,21503.2110448036,21134.4163904387,19243.2622618258,20331.4791582911,20322.6772843739,20765.0246364772,19985.7044594757,18963.5143015567,20713.0245705794,19963.9179575057,21159.3816245402,19926.1047931191,19488.328468163,20627.7784242304,19835.9254683844,20370.2387023647,20624.0230950479,20270.9991791185,18979.3968049515,19612.6827235608,19947.1277875514,20441.8795380634,20903.0499539393,21591.3528204648,20698.3018454306,21424.3078020367,20270.3771880483,20447.3228506949,20887.5519604858,19769.7390708586,19453.7500910818,20219.3573953345,20799.1791845596,19545.5502617172,20612.679378566,20470.6984796507,20734.0010640894,20173.9883318477,17291.6517427629,20697.2790168126,20462.163093469,20767.6861507453,20694.1389346798,20221.1288002729,18874.0524511574,18850.5719378792,19500.8890642571,20013.1791731369,20083.493078177,19755.399296774,19693.3336154873,20401.924758199,20678.9245692314,19859.874835515,20527.2752440072,20004.1776171649,11232.5489037414,10244.329817474,12753.7573075209,19228.4663923624,20163.130708496,20233.5428761067,19397.1060131795,19309.5670578101,20907.8319008164,18817.1078022321,18703.9720094686,20186.6704447281
,72.5,19676.0103890975,19001.9100994052,21014.803463173,19407.8210278492,19333.651923257,17819.1871632858,17968.1153628738,19511.880766398,19854.082287451,14186.6067948281,19247.3194762775,19644.2167952947,20044.8608465246,19759.2819191226,20979.9271730451,20571.4790406145,20526.0706057089,20955.8462478084,18842.4851783288,19726.8506325294,20078.2923776677,20352.663788036,19889.382053493,19318.0495531304,20083.7084420263,21408.7048023531,21325.0483159699,21105.6808009264,21295.480638298,20953.9580383743,19134.9030273235,20159.4922309046,20153.0623948786,20601.2881147053,19840.7580491249,18832.2624052743,20504.0128350854,19754.0053932239,20948.9404168282,19785.309169016,19357.0274119868,20483.5416059437,19693.3898547281,20220.4680792436,20481.6705883811,20147.6124610939,18866.1785885594,19498.1628695495,19759.6653553399,20224.9974048063,20673.799727707,21415.0507885919,20533.9285719619,21254.7992180372,20119.3205211083,20281.9176461139,20717.7497690359,19570.3830948982,19259.3009642164,20030.4581508602,20583.9681878134,19333.2609454567,20377.9037374855,20310.7527274309,20592.4295219608,20027.6010958602,17176.2212897547,20543.3203924178,20322.1988402313,20587.4403971232,20527.9992362113,20067.158882326,18652.8260592801,18628.0203011095,19283.493526146,19838.6011759055,19922.5141467429,19587.0905763901,19562.5893898776,20255.3497441034,20535.5975245488,19702.0021171941,20377.9259096136,19875.0466450209,11016.132528171,10016.456506519,12511.742676812,19090.1802094008,20008.6997730901,20088.897479389,19233.9132620495,19153.5618712384,20733.7044564295,18690.9358678453,18592.2998393714,20050.5283589706
,73,19475.4524228896,18821.8493655919,20803.3587753608,19295.7936411079,19164.2508456968,17658.8511178303,17811.0857990673,19363.4183047444,19679.2130036378,14143.6353292998,19124.6960024522,19509.0222770271,19862.2643668878,19557.0312405512,20756.465382861,20381.618235299,20336.7953943933,20777.3016155465,18690.4982733708,19571.1083825187,19900.2177970924,20185.6946111061,19735.2358911004,19162.3275694845,19938.572730124,21184.0363941997,21096.4143338101,20895.0872936424,21075.261112436,20757.2458287307,18996.0638250913,19972.3920478178,19969.4152355249,20423.5455141684,19678.3427954119,18688.8352893815,20277.4668626589,19539.1668138538,20726.4863112678,19628.3304898037,19214.4173667389,20323.0895338933,19536.5414618274,20054.9787998326,20320.0468586433,20004.1935553691,18734.1722496879,19364.8325593725,19553.1215107469,19996.3162812933,20434.8094153302,21221.6510145565,20353.6512444985,21068.5305503228,19952.0866448082,20101.27659775,20535.8445255139,19359.2085990883,19051.8411014678,19827.6226303276,20354.5849066895,19109.2525839597,20128.5249284541,20139.1296668216,20432.9242359442,19866.0492212294,17049.3189110711,20374.2287550049,20164.9367221188,20393.8985070935,20348.29946231,19894.3457722196,18421.7593858686,18395.4423118104,19052.9676651587,19648.4458146058,19743.285519972,19399.7308119894,19415.0131070109,20090.6829239043,20375.7488302167,19529.5481819837,20210.778674689,19734.6729569584,10808.8215438877,9807.56444576714,12277.5562091495,18932.9982910825,19835.5885012523,19924.6713377623,19057.3705315428,18975.2551708417,20546.5851154876,18548.8774683483,18466.0807095421,19905.5581619434
,73.5,19269.0420385887,18620.6598663399,20580.78285001,19182.537274508,18981.9982102628,17485.8446602223,17642.4053060493,19196.4363288647,19490.4500957852,14072.9419712167,18984.3861435563,19363.0821375023,19670.7036467631,19347.4474186516,20526.3703345829,20181.2195803426,20135.8440241046,20584.0428073287,18526.3304792406,19400.2685106937,19712.5912797766,20004.4810942095,19565.9393415374,19001.891212657,19793.0545058952,20953.3918107784,20860.0315080633,20675.02530469,20847.5176470777,20548.5477400894,18830.8363971802,19774.449612021,19776.2431063155,20236.716538204,19503.8822257413,18536.7949620638,20040.8408770859,19320.6593609056,20495.7158180592,19460.8827060029,19063.6943185529,20151.8461294529,19369.5834613315,19877.2965286271,20142.7342173484,19844.7865419407,18589.3617270924,19218.5234171364,19337.0322090689,19759.2929421647,20187.7973994052,21015.5674728407,20159.2415145112,20868.026108465,19772.0524846567,19911.2381033334,20345.2795998583,19142.1453310928,18835.0171912492,19614.7798913667,20116.5672407932,18879.4729928777,19870.7455222601,19959.9372679025,20258.6267722185,19693.339171845,16912.5378970078,20197.0997134813,19995.5704672557,20191.6906455706,20157.8615879501,19711.8246311644,18186.5069345594,18157.5798335188,18815.8447659331,19447.1203302002,19549.5924235034,19200.2978588977,19256.5703254795,19914.6632606738,20204.5539659702,19348.3924298642,20031.3213761842,19596.7148925546,10609.5648848231,9615.25667884374,12049.9683793255,18760.3722483977,19649.3969066412,19745.1496886395,18872.6680048994,18784.4130194287,20348.2728537937,18394.6800622835,18328.3538528484,19757.3898143969
,74,19060.4309547892,18407.2274426884,20353.1367885147,19063.9425118901,18792.2065799542,17305.7245087246,17464.1826816997,19016.2199814637,19297.2134377797,13981.9903602559,18831.3276274279,19209.8061442729,19473.0612823885,19132.5569113004,20292.0199482783,19974.4402728697,19925.8957956499,20379.0670151005,18351.3206719425,19219.0030535407,19517.0103565388,19813.8735849662,19384.7950830241,18836.663485253,19645.1216251843,20718.3276317886,20617.610124181,20448.9670540711,20615.6103400238,20331.673176367,18644.8547898653,19567.8902932671,19576.7688495236,20043.1564544998,19321.398584908,18379.5250533257,19797.9166387762,19100.2360294532,20260.664592942,19286.2995777946,18905.1596410937,19972.1978279982,19194.587157065,19693.0758574757,19953.4864927787,19675.6937106176,18436.0989806774,19059.8354666244,19114.449817286,19516.7400942743,19936.5336449187,20800.903581306,19957.9128945799,20660.2541956854,19584.5908252913,19714.6716967506,20149.0139012978,18918.3662635774,18614.377234701,19394.0939637325,19870.9131876057,18644.4209527048,19607.6661924455,19775.4166399285,20073.3060160241,19511.7890958175,16768.5561523652,20011.3926204363,19815.0284896986,19985.6965267931,19959.9965901606,19523.5181225415,17950.0739537741,17916.6651580847,18575.1170720341,19236.1160113151,19346.2930476546,18991.498121452,19089.5784143002,19730.687919253,20022.6911401074,19162.5656528278,19843.0400851022,19466.9904981724,10417.5494001632,9436.55629529265,11829.6072810806,18576.9004617913,19453.5025143479,19553.7463225887,18682.239437753,18586.2879857247,20141.5765843006,18233.7935322331,18182.1257732932,19605.4623787735
,74.5,18852.3506107936,18189.0492634795,20122.5673644184,18938.0106686682,18598.3548632274,17121.3763834396,17282.3523613596,18827.7758982697,19098.2035227781,13877.0343075194,18672.8285287421,19050.2316318269,19273.2685954808,18912.896783164,20054.4308572967,19763.4637584905,19710.3266168203,20163.8376526922,18167.3883327183,19028.1397653123,19318.9018057995,19616.2364627525,19194.3825641568,18665.3844688598,19475.1033688496,20479.5905796583,20371.9525327069,20219.3035239304,20380.5852936588,20106.9921649617,18452.7594936096,19354.6518325024,19370.4530188971,19843.829629614,19131.7509363393,18221.2393650779,19550.6969464555,18878.0413884039,20020.6856903388,19106.5840204196,18741.0992651753,19785.5177885748,19013.9203107809,19504.2656812454,19757.1370051106,19498.0341045292,18276.68358373,18892.7439743209,18888.434612663,19272.7148353171,19685.2769080172,20580.5048387628,19751.1358646179,20446.0561695378,19391.6835437586,19513.6968255108,19948.7631958569,18691.5932071295,18389.1342914267,19169.6666521979,19623.5707147818,18408.5734051947,19342.5784951991,19586.8848921918,19881.6398418447,19324.0459651901,16616.3702762309,19819.6735568216,19624.9809076721,19778.0543050485,19756.790585496,19329.1170917665,17713.9534602575,17674.5824638588,18333.1538931985,19020.0251009695,19133.789551417,18774.861763227,18915.5208251294,19542.1325400638,19832.7527232603,18972.9738547824,19648.6284445097,19345.0470681772,10231.7913496191,9268.23901291544,11615.843403423,18388.0424069614,19252.3303692412,19355.6989908191,18488.8026718614,18384.0929643162,19930.8689853422,18067.5099423579,18028.3048421591,19454.7102973631
,75,18642.567539956,17971.0392435019,19891.4158762712,18788.6953454665,18401.4417067981,16936.315129915,17095.3517920209,18630.8829303423,18895.7516188101,13763.9253627046,18506.1774884642,18887.8000037997,19073.8995940861,18691.8083047822,19816.1723071334,19549.7732388809,19491.3578832722,19941.7017371613,17978.2425202036,18828.6642619334,19117.0647568763,19414.3504938681,19000.2816635642,18491.9649994445,19285.6683623017,20238.8449711357,20125.2402000457,19985.9151535561,20144.58070804,19875.4093976806,18256.1818167147,19136.6215985684,19158.4807821251,19642.0748897743,18938.2166680815,18075.0452191614,19301.2762007344,18655.5063576584,19777.6120210394,18922.7260366882,18573.0104581888,19594.9010575157,18829.5026259304,19312.0897213139,19556.962285222,19314.8788249751,18110.827214089,18717.8666272393,18659.4016583256,19028.6408605829,19435.5228901766,20356.7840365355,19537.8290062023,20228.1108996452,19193.9632311552,19311.1121225287,19744.9568845923,18463.3137445386,18162.0525033843,18941.7275316227,19373.863119681,18171.6825393963,19077.0729347026,19394.1196470087,19683.448145296,19129.1523837554,16457.6932021273,19621.5825765538,19431.5239593367,19570.0394041264,19553.5230959507,19133.263801664,17478.4038803344,17433.674109692,18090.2075594129,18799.3827065186,18912.2194127443,18553.9164808675,18737.3231462664,19348.8957658555,19637.8454830058,18780.8865235324,19451.190558133,19231.1450099817,10051.6861299484,9107.75117405842,11407.251692856,18191.9497883895,19046.9732949803,19150.6249592789,18292.0068691269,18180.8812550515,19715.2008097557,17896.8755389609,17869.5539018502,19314.9660585443
,75.5,18433.7579791366,17753.3353610613,19658.3744456517,18620.0369745468,18201.5102115434,16750.9239445742,16908.6402467404,18428.1576744944,18690.2958822143,13644.6577678437,18333.5259822668,18719.785742882,18876.3095789657,18470.4167578787,19577.2187565927,19333.8545250976,19269.5666649399,19716.2358177746,17785.3014076416,18623.248436875,18913.7045752941,19208.8651827711,18806.222973804,18314.1129210247,19078.3977990572,19997.0367322504,19878.1607770707,19751.9983015099,19907.2540607599,19641.3600951617,18053.9576403475,18915.7572259419,18943.5013175896,19437.9259682378,18740.873462619,17939.1111109339,19052.5521953545,18432.668906676,19533.3306056703,18735.2948006863,18400.784888092,19400.800431532,18639.5979891674,19115.2459688,19353.1854245424,19127.9021378811,17942.2371229005,18538.8704521295,18431.2857262939,18784.7448858943,19185.1822212235,20130.7825319991,19321.7729672286,20006.9866987537,18994.2367600941,19106.4635224094,19536.650068108,18230.9021737325,17934.2789748325,18712.7375669193,19124.1937351978,17935.3179279186,18811.6238064412,19196.5531592609,19481.5971491659,18929.7640193578,16295.5791965635,19418.2628154915,19234.9258497835,19360.4432687266,19347.2074631193,18938.6376680079,17243.9300845553,17193.0773109421,17847.7809034706,18573.9904978536,18686.3981862305,18330.1820634222,18555.7586994157,19154.2654304519,19438.5431199104,18586.0407756687,19252.2048511948,19119.225162607,9876.33328646387,8953.44935687296,11202.7404125477,17993.0427135012,18836.6796933434,18938.2643286911,18092.8697378258,17978.0422652023,19494.7255150237,17721.034751617,17705.9156162757,19185.2977083712
,76,18224.8441149882,17534.5696331775,19426.7909641062,18432.5273445279,18001.1706389856,16563.462630933,16722.1227306,18223.9134958141,18485.8517858178,13521.8333441794,18156.6269617143,18549.5992151279,18684.4459142948,18248.910319266,19338.8971129845,19115.1388047337,19046.9034333193,19487.6204748579,17589.3130946356,18416.0512158585,18706.9686483565,19000.3970446485,18610.8116346405,18130.8544393958,18858.4418082374,19753.3664178093,19633.2429106704,19518.0533118886,19670.1493736973,19407.6073517679,17849.6228981902,18692.4488900867,18723.8241288572,19232.3301661362,18541.3389251162,17813.981043746,18804.4546165433,18208.4619131411,19288.4584121586,18545.3181848202,18225.0325991713,19202.7151692345,18444.8740509584,18914.3968969872,19148.966285175,18938.4480130497,17769.2622218604,18357.5812388408,18203.1215809992,18543.2334786044,18937.3207986878,19903.9594378399,19104.2133177863,19783.7229870145,18792.3389557008,18900.1105015055,19325.7624745418,17995.4068990953,17706.754870762,18483.6095852102,18875.0295217776,17699.204898881,18548.2569551218,18994.7468814943,19279.3862919848,18726.9454759636,16128.8823461278,19210.4505627238,19034.9194349581,19152.2952834653,19141.5760142042,18745.8119898591,17009.5756949082,16953.2524239636,17604.780546814,18346.1622091831,18458.6732670741,18103.9205884639,18369.5965831224,18956.9283945273,19235.1881049304,18389.0387865788,19051.4443164168,18987.7032880483,9706.25763664471,8804.62568265894,11002.5100608118,17792.337993412,18622.5759761531,18721.8449456638,17893.3226944356,17772.1984814166,19274.172360204,17540.5036645385,17538.6768833521,19063.0588325515
,76.5,18017.5733955145,17315.5155848761,19194.942867389,18232.3633299407,17798.4990509562,16374.2021198069,16535.9514809233,18018.4707184812,18277.6647324487,13396.4796131189,17976.1236343752,18374.7596247351,18503.1756608961,18028.025074567,19101.752149706,18894.5053244515,18822.8132473681,19256.6896094917,17392.6942699082,18207.6625447536,18498.1584755457,18789.4079179555,18413.7205314565,17945.7897329968,18628.8270445255,19509.1712237396,19390.2640982315,19283.8048539733,19433.6887091553,19174.0721809231,17642.3636678171,18467.4686655786,18501.7217332393,19024.9239327803,18340.1361033727,17696.9727123162,18557.6663287475,17985.5349467738,19043.0754577838,18351.586041192,18046.1934933629,19002.5574907452,18247.8241807065,18708.5609020572,18942.9494206578,18746.6645595277,17591.9123470788,18174.74095632,17976.5780799702,18303.5029630298,18690.4944265767,19675.8771365583,18882.178658904,19556.4017162523,18589.6486038442,18692.7983456433,19112.5096119636,17760.8142697785,17479.3313239933,18255.0435217586,18626.331999929,17464.9839289056,18284.8481368222,18791.1515986023,19077.029059947,18522.0197235514,15958.489457396,19000.3947307711,18833.6167146011,18944.2436068514,18934.8821672089,18552.428025634,16775.5027850941,16714.8878294507,17362.7830530329,18117.576044296,18229.6382926876,17876.2879763089,18180.5153751946,18754.3542347827,19029.7895470909,18188.6133086497,18849.8645022386,18833.9864801221,9540.11726264286,8660.55441909924,10806.5327942873,17590.4548680273,18405.6602332462,18504.2286891565,17690.1868264345,17565.4232871149,19052.7666143916,17356.5529320846,17367.6705719538,18949.4472024124
,77,17811.1782696883,17098.3601666101,18963.1327929588,18023.0314118989,17593.6502380872,16184.3004531213,16348.5674097556,17812.3878189456,18071.0789697124,13270.1015510635,17793.8567643635,18197.0996692446,18336.3639068014,17808.5034074386,18867.5948267189,18671.5118103611,18595.9907803958,19025.7596794399,17195.2471664843,17997.3369121238,18286.208175899,18576.2137386574,18217.3340392196,17761.4229841302,18400.555009975,19265.4394301488,19148.404486087,19049.9773814984,19197.5403271273,18942.2332247318,17433.3277570613,18242.6425421735,18279.275572318,18815.8726249745,18137.4201724535,17584.164120836,18313.2502735732,17764.4273307007,18800.6543833844,18154.8557290308,17864.9963527563,18799.5646303471,18047.0160441049,18500.886567259,18735.5500732878,18551.7546157679,17411.1631548701,17990.833792943,17751.3843437927,18064.8943421208,18444.7444802667,19446.385062476,18657.7332728511,19328.1883634009,18384.5205646804,18483.9847939106,18898.2756941846,17525.9657714995,17253.0863975678,18025.2495981555,18377.2404147723,17231.5824729945,18021.6153715913,18585.8844228659,18871.607899848,18315.1709291333,15786.1915841236,18787.5219935054,18631.2122367331,18735.6130940258,18730.4422348944,18360.0767384853,16541.4117677062,16478.1785277118,17122.3376501182,17888.5426449987,18001.7041793057,17648.2678714042,17988.0169050434,18548.1042417929,18820.9128036139,17985.0371800185,18647.0049146298,18662.4831691789,9378.2862114987,8520.5160206323,10613.7139121776,17387.3434176845,18188.2495239179,18284.935138184,17486.9656356027,17357.7306518981,18830.1464591213,17168.6724334367,17194.5354747771,18837.7216826267
,77.5,17604.7728205207,16882.1716401829,18731.2320364976,17813.934251861,17386.916386427,15992.2731779139,16161.3327899709,17609.5366243643,17864.4821401508,13141.1257890855,17612.3157610463,18012.5228897607,18182.797515583,17589.9431351398,18634.8924914275,18446.415109576,18368.2894055881,18792.8822318304,16997.432193602,17789.0385259351,18073.7751148942,18361.8108235674,18018.1453365706,17577.3740118931,18173.7023744642,19022.7763577842,18907.4002145912,18817.0376810329,18960.6262246831,18713.1973000185,17222.5882578568,18018.8967187557,18057.0070842784,18604.6205675012,17934.0512405176,17448.1234120412,18070.1813519619,17544.2686524678,18560.455186233,17954.5343092568,17683.7489575278,18595.0604656256,17843.5952639032,18289.0273503165,18525.1708677869,18354.6009267615,17226.7014105877,17804.7353052526,17529.0394313964,17827.9256510391,18199.747901419,19215.810168483,18433.0121265822,19099.0976543753,18179.1433097537,18271.8671691223,18682.7662440944,17290.6351774485,17025.4114086545,17795.0611955561,18130.3745290073,17000.2979036385,17759.0665446401,18377.9816537577,18666.745970329,18108.7736183982,15613.2226236854,18573.4782005334,18425.0722209105,18524.6614338379,18524.1174708085,18168.7545169924,16307.5043261267,16242.3660962019,16883.0206866914,17659.4194959807,17776.0212156035,17420.6036857024,17790.6375633952,18340.190955674,18609.1541045311,17779.3909810503,18441.772984274,18473.4814220999,9220.11878504624,8383.88146428328,10424.0186508816,17185.8699924301,17970.3774069793,18065.3663703168,17282.931822537,17148.7939507844,18608.8891401957,16978.5660530689,17019.3954318469,18705.4024130073
,78,17399.2352983923,16666.5091898505,18501.466357984,17605.4416528193,17180.0144347981,15799.9721663011,15973.6289378792,17407.002334763,17658.4818621553,13009.8895617939,17427.1081308628,17826.1475793895,18039.374816309,17373.4841609135,18405.2445620789,18219.7397540307,18141.4051640661,18557.201560466,16797.1589961744,17581.968105885,17858.6591129709,18148.2929565202,17816.1897624072,17395.5973856263,17949.9046521395,18781.0258838923,18668.8261913363,18584.3117377261,18724.5953380098,18485.3048289653,17012.228928416,17795.3666163994,17833.5141709388,18393.0547172984,17730.2491146362,17291.086372938,17830.2244958194,17325.7444994034,18323.3734941475,17751.8021945236,17501.2814821528,18388.4896726413,17638.4291107561,18075.3993755264,18315.1100988127,18154.8784212228,17037.7859063508,17615.0516411048,17307.3106277815,17593.3172833952,17958.135441126,18984.7312520447,18206.9367538085,18868.5507054378,17973.4695381813,18059.2008172399,18467.9588946601,17057.9219513218,16797.7441054419,17564.2845450388,17885.1607267225,16769.5790185909,17498.9665834909,18168.114424741,18460.1919003937,17902.3396633327,15437.2989631226,18359.1834515227,18215.8565101924,18313.1695623827,18318.6303523648,17976.9744890906,16074.9208440895,16008.530659903,16645.062594131,17432.0392602185,17551.3797701762,17193.3669509108,17589.9569973528,18128.4022610197,18395.6152222262,17571.9699810578,18234.2979279595,18270.4004580089,9065.43977812553,8250.83222426757,10238.105594071,16981.9801972872,17751.8251144042,17847.7251510851,17077.8578496536,16937.5117016932,18389.4464466817,16786.3632801191,16842.5039490425,18550.9601553446
,78.5,17194.0734979903,16454.2475338851,18272.4054816194,17398.1694936598,16971.02890553,15608.3499775098,15785.5765952513,17204.7225383222,17450.9471877868,12876.8101447803,17241.4453786893,17635.8061127745,17902.0671784427,17157.7314739561,18176.5605495732,17992.6948759094,17914.8497170473,18322.1476357536,16594.2957340481,17373.1835985188,17642.1376545192,17935.4025649887,17613.0144921976,17215.4788742308,17727.2718733698,18541.0614054275,18430.9606680935,18352.2037689896,18488.9223065715,18256.9214837317,16800.9625077129,17572.6076550081,17611.0013875469,18178.7300442074,17524.9664333728,17113.9564617961,17591.9238967762,17110.2430096895,18089.6853181629,17546.5140633217,17317.6950761813,18181.4217017375,17431.485702105,17862.7795140026,18102.4300989271,17953.3561136491,16845.6564345942,17423.0325074417,17087.3459361048,17360.612611375,17717.8810855581,18751.6130784383,17980.4287605483,18637.9722633327,17767.9451799,17845.6376697725,18252.6264467179,16827.066065692,16570.8767497311,17331.8888128099,17642.4285109423,16540.1310895786,17239.4305913887,17957.2297919929,18250.2527257063,17694.844377133,15260.7684392022,18142.4201542677,18003.9289941904,18097.9469949817,18109.6896070157,17781.0817402567,15844.7233899535,15775.983770087,16409.1022309645,17204.9331739582,17326.6423374226,16966.4938007708,17387.8576687832,17912.726160308,18179.3581692053,17361.6343794258,18025.1833890486,18065.4170373232,8913.91375709929,8120.83563465115,10056.170882352,16778.0049841675,17534.2119700637,17630.9939399166,16871.5494547272,16727.2299523851,18169.3613444598,16592.8174923046,16662.194062118,18375.0164266672
,79,16987.428506799,16244.8017689049,18044.7092896735,17191.2375331804,16764.1135907018,15418.1040502259,15597.0155930134,17001.1145815564,17244.0049899603,12743.1724281135,17055.8317541526,17444.4261733377,17760.7258594663,16942.7014143688,17949.9470715926,17766.3943202021,17690.3340766735,18087.8440616524,16388.9565065617,17160.9008463891,17422.2424892554,17722.3525017376,17407.9538018592,17036.4901398503,17506.4590949121,18304.064540091,18194.6610795464,18120.7640903664,18251.8066339779,18028.4619273092,16590.1174003794,17350.274979892,17388.9497741582,17963.553323781,17318.5412255335,16920.498667564,17355.4549690509,16895.0233619134,17859.3612387723,17339.7456148389,17132.8760791719,17970.7768820444,17222.9892106159,17650.4544780688,17888.9732647662,17747.0602180224,16650.9277252142,17226.5832083073,16867.6970649051,17130.3052999186,17480.6782151335,18518.0171321364,17755.1478521366,18407.5854761553,17559.4290430198,17630.8880729656,18036.0191339718,16597.0157625538,16344.2670433581,17097.9907703991,17402.0064758138,16312.4457106391,16983.0463295169,17744.9425508307,18035.7045036138,17484.8867448825,15082.377874228,17924.1884630444,17790.3592162849,17880.7408360903,17900.0081334287,17584.1879548803,15616.7548972879,15545.015189431,16174.0120140175,16978.6173689532,17103.3074625677,16742.3314916095,17182.0186568223,17696.4223442202,17959.3018270207,17150.4735798234,17813.8897979414,17860.2080434647,8766.05503865905,7993.95249038786,9876.79930913591,16575.4785720994,17316.6337703021,17413.9062143793,16666.9677442278,16517.1094695851,17949.0548589789,16395.355569659,16480.1813526353,18177.2544133882
,79.5,16780.5923215578,16035.7847272781,17817.7518297824,16984.0992485151,16559.2899337064,15227.7838861511,15408.9562237495,16797.9087702263,17035.1938177931,12608.7989496098,16866.8833593555,17250.9175842511,17600.7325316948,16728.8271564471,17723.7563312728,17540.1418791061,17468.647380516,17852.4855650922,16180.8503413801,16948.1919979295,17200.9742989681,17507.7308640035,17197.814131249,16857.6417596708,17288.5723944817,18068.0841704653,17960.649797948,17888.3389743401,18014.3270799019,17799.7125427582,16380.9978187434,17126.1958243981,17165.2256516922,17746.7141418783,17111.4105167927,16713.0200000156,17118.3296358118,16680.6126925145,17629.6091866856,17131.5789087675,16946.4118090303,17757.645000915,17014.2029665413,17436.504612962,17673.9695272234,17537.7826898933,16452.7244801989,17025.1341808263,16648.0161984965,16901.6548623166,17245.4962949226,18283.8556054426,17528.7527302051,18175.1317994697,17351.408141371,17413.744384931,17816.6197709332,16369.0475148978,16117.903458983,16864.9212475994,17163.6256780521,16087.1007653046,16730.003407962,17529.6881469838,17818.3496991121,17271.9849314053,14903.160159029,17702.575144284,17573.9862699447,17661.4505962454,17687.2744533826,17386.2051119056,15392.0612064824,15315.7412522304,15940.6285228767,16752.836364035,16880.9701663286,16520.4069464977,16973.1809598252,17475.3475801115,17735.8441936062,16939.6746251069,17600.9576209009,17651.388740172,8621.23963885198,7870.29006598923,9700.55636889134,16373.2838297273,17098.657044222,17197.9448709255,16460.1041004784,16307.6842538763,17728.3030351853,16195.1917054937,16294.7594229803,17961.8089712981
,80,16575.7526550103,15827.5007725672,17593.0615979982,16776.7305448185,16356.4075264259,15039.5542327895,15221.98131282,16590.8555096742,16824.2684249402,12472.83568719,16673.3611912017,17058.4776671489,17423.6472041591,16515.7548098111,17499.7832813694,17314.522621514,17246.6838864135,17618.6933614931,15969.7063760635,16730.5429565972,16976.6299495006,17290.7479204718,16986.8829267427,16692.5583420296,17072.6005905089,17833.3819974738,17728.7469584678,17655.6910717208,17776.9731845975,17569.3303061464,16171.6767929971,16898.7612884851,16940.9803554049,17528.4496648243,16901.4561106044,16505.4996910919,16883.7846298903,16467.6654440597,17401.1552887844,16920.6095400027,16755.7898610816,17539.786349795,16803.8325543784,17222.6329100053,17459.2179843502,17323.9926774038,16252.6651249985,16820.4394154717,16427.7620274947,16674.7660918559,17012.2892552829,18047.9716015242,17300.9168098159,17941.0971324905,17141.7056991793,17195.1992312959,17596.1627988817,16142.9593485347,15894.9671346577,16633.363807542,16926.4635590226,15863.0980060005,16481.1601015294,17310.8181879773,17596.4735272677,17055.5921337311,14722.1248688435,17477.9218458263,17356.25378663,17441.9961089929,17473.1521521239,17184.3136214066,15169.790682201,15088.4497443244,15709.0999907702,16528.2693744988,16658.7940296038,16298.9576735366,16762.36471563,17248.4901613962,17508.1475649899,16727.4884241404,17387.8034397779,17441.9461827096,8479.03306806016,7749.66980448477,9526.38259054468,16168.6721633531,16880.4844867611,16981.7968322134,16253.8306932391,16097.6494171389,17505.3570594317,15990.0790378552,16104.8943307445,17739.0577820452
,80.5,16371.9594934166,15621.0824333577,17369.2200926654,16568.5212502302,16152.243695919,14852.7313206099,15035.3722404713,16383.5607081246,16610.1085442421,12336.5961151201,16481.2798038863,16866.2465930748,17231.5136049354,16302.6816488196,17275.5471932189,17090.1977049842,17023.3874331524,17387.3807670698,15757.1949241906,16508.5777558943,16749.003321708,17068.4569999566,16771.7368426483,16538.3617100422,16857.497184701,17600.0345227932,17498.1639045732,17422.3450687778,17538.3283880656,17338.3605164032,15962.6208011269,16669.8517118597,16715.5080214432,17306.086307083,16689.0433573816,16296.9966864701,16647.5412827007,16255.1528276437,17173.2453311949,16705.1575524666,16561.3583994608,17317.8676008907,16592.1373116183,17007.3334518613,17240.9844278988,17105.1807566146,16050.1755986172,16612.8427699769,16209.5885814268,16449.1132132712,16779.6741335143,17808.9935780444,17071.5780782583,17705.4956901972,16930.0611697887,16973.0578289911,17372.3481829578,15917.3969082693,15674.1509138227,16402.2546030769,16689.4582045891,15641.7001521581,16234.5318758068,17089.6872069508,17372.4678482731,16836.1282241969,14541.0721910427,17250.1881964962,17136.4694536813,17220.8988319519,17257.2241268246,16980.1337371822,14949.504666981,14862.7758802889,15479.1224003796,16303.6930232564,16436.423818026,16078.8269835809,16547.7852720547,17016.370744907,17274.1127332466,16514.8291112514,17173.5983516457,17231.3905680336,8339.38995854966,7631.06527164515,9353.14148439029,15965.2477435134,16663.9343101363,16765.143466094,16047.4797664992,15888.7198933414,17280.009426071,15780.3469554061,15910.6698736788,17511.9503584776
,81,16170.6290032541,15414.2483501744,17145.7369161304,16360.4234296068,15948.8056411835,14667.3520270354,14848.7618222503,16175.1748675729,16395.8659927109,12200.1373096184,16288.1638509585,16673.0904019157,17024.6470143841,16090.2999288925,17053.0187905618,16866.5498008552,16798.6465106991,17155.87679794,15544.6374014108,16285.5593619449,16519.5991905949,16842.0173628596,16552.8020967788,16395.754039071,16644.2611242107,17368.0089491082,17268.2032944794,17188.1032216439,17298.406723329,17108.152397573,15752.9740987289,16438.968877898,16489.7425376848,17081.3677894792,16473.9727957904,16086.8314757393,16413.8226587357,16043.6700161476,16945.6809335253,16484.2304696873,16364.1954783294,17089.6109996714,16379.20053188,16787.8335850787,17021.434074261,16879.712399673,15842.9373039758,16397.4038617378,15992.6422853709,16224.1159334086,16548.6198533745,17567.502853841,16840.0377590308,17467.2200134277,16716.8477877678,16748.336660596,17145.1724576711,15693.8922408282,15455.9791471113,16172.2254840414,16453.9476191237,15422.2821152275,15990.9810177679,16866.2102546187,17144.4136613007,16614.3453199384,14359.0592922865,17021.3455148258,16914.3994008018,17001.354094609,17042.5640445627,16775.1539327926,14729.9085418586,14638.9912123042,15251.102128095,16080.4135188242,16215.0557012894,15859.2669779277,16328.0935567782,16779.0886497857,17035.1740299442,16302.4518225532,16959.2691990625,17020.2636179638,8201.27359855748,7513.46729532057,9180.0813042874,15761.3865832269,16447.9013115739,16547.3440195401,15839.5856786386,15679.9751020927,17053.7692741291,15565.3826595279,15712.9394133693,17279.4854765766
,81.5,15971.7478746643,15208.4069458543,16923.7055786503,16151.8347417197,15744.4080988053,14482.1553359213,14662.865767582,15967.8707108109,16180.5331291527,12062.1616010403,16091.9608405343,16477.2797663722,16808.4352541663,15879.3116209603,16830.0231991499,16642.6786992527,16571.2546415952,16922.9493542186,15332.2418722112,16063.0916558291,16292.7067018028,16612.5795678061,16332.2560505444,16262.0287882227,16431.6946318173,17135.2262515344,17038.5634990292,16953.5318897515,17057.9407831853,16878.5700240649,15544.2496615891,16206.6484025734,16263.2729114522,16853.1686420954,16254.7313622717,15874.2793480575,16180.745416515,15834.6249478069,16718.5667289543,16256.9588655437,16169.7338749986,16857.0915345271,16163.9782587758,16565.0700196575,16800.1953374917,16650.4606538538,15632.3496347354,16178.4200847946,15777.719725513,16000.268930476,16318.4710082741,17321.9520362469,16605.8194495559,17226.4828706598,16503.8037198041,16519.781289388,16915.4408706229,15472.1796523849,15240.7540610163,15944.4205126317,16219.3498232827,15204.6868295297,15749.8666917574,16637.2479713118,16915.6633535861,16390.9098871261,14177.2367705743,16789.0193822256,16688.8691877252,16782.6785939503,16827.9598935639,16567.5572767711,14510.4831105242,14417.226184603,15025.7236053551,15857.5469891231,15993.5000585086,15638.4114961376,16105.6743348595,16534.3136539025,16791.7197922241,16089.5273694374,16744.6167669658,16807.4901784336,8063.64903931478,7388.96974539715,9008.20723260365,15555.6497246617,16234.1608034307,16329.9395419282,15631.009562468,15471.1587474379,16825.7761948571,15346.914373025,15509.8174998246,17040.8632557942
,82,15776.779608194,15005.086806101,16703.0987894092,15944.0457837015,15538.7962904579,14296.9760021782,14475.628419185,15759.0716321437,15963.5720679706,11922.8991607696,15893.413673791,16280.5999631749,16592.2726634319,15669.5417804803,16607.9559601826,16418.6574679399,16341.7922508,16690.5356387827,15121.0535158652,15839.8978760058,16065.0959857289,16383.3093985188,16113.7025283401,16137.6335252467,16218.7888532114,16905.1068339988,16809.8133426419,16720.2443259772,16818.1048275873,16650.0964539667,15333.2838953681,15973.8335240443,16037.4969305993,16622.1737632301,16032.8597188889,15658.9899836629,15950.2930835842,15628.1314489549,16494.2764437437,16022.8999978311,15980.5495574972,16619.1174128837,15947.1098439495,16338.6853566014,16576.0290702108,16416.7362494995,15417.4312584204,15953.9010157508,15564.4121630177,15778.030473087,16091.546759898,17072.7164178486,16370.3258612423,16983.9418624711,16288.5940645431,16290.2144867952,16683.7066265357,15251.3983233201,15028.8684949809,15717.3793332912,15986.3029400859,14988.1740247801,15511.2643736661,16404.0146192474,16685.0117657872,16166.5852799658,13994.735634026,16556.4565152323,16460.3514194149,16565.2436445142,16613.2287370182,16357.8385985993,14290.4376052532,14197.3879906941,14802.0269676795,15634.8351447954,15770.1103759483,15417.6177239239,15879.9771431142,16285.2950850867,16543.2941402289,15874.3575332311,16528.9590886831,16594.2720775757,7926.08477282776,7252.179139107,8837.76940700541,15349.0878851097,16020.2739748879,16110.4207649091,15423.8410508195,15260.6923394671,16597.3259376866,15123.8473408135,15302.3068708278,16796.5528297074
,82.5,15583.9202293236,14803.4230707532,16482.7036675927,15735.9756759818,15331.4862037962,14110.671604066,14287.8370571474,15549.6637207805,15747.1723668417,11782.8926366322,15693.9819486796,16079.8739431099,16375.7113869016,15461.9377287591,16386.5068377452,16195.1462805648,16112.1599606429,16457.1251463888,14909.3694419279,15617.3331795222,15837.7915893844,16154.0078072286,15893.4877192637,15990.8307933238,16008.1611226088,16676.474236972,16582.0745781949,16488.1366343876,16577.8811673537,16422.3147110167,15122.5728970335,15741.3307776156,15811.1217506009,16387.7463973053,15808.7638826767,15441.4583262347,15719.8284400762,15423.3150085065,16271.8253128451,15785.0478813965,15795.512293148,16376.2003538979,15728.1048666884,16109.6518050663,16348.3996928018,16177.6361786573,15198.2961076431,15725.2745637234,15353.332938526,15557.8177003536,15865.9128432247,16821.03758264,16134.3147166687,16739.7826763665,16072.5425747474,16058.9345991758,16448.8983704809,15031.831982154,14817.6033262636,15490.2671753102,15754.5382562999,14773.5770457798,15272.5398488917,16169.8415973759,16454.5350146862,15940.7764762845,13811.0743610319,16323.219735651,16228.8712118148,16348.6853688134,16398.585228883,16149.2240244466,14070.8510767616,13979.4641946108,14580.9997682867,15411.8748883558,15545.9342532721,15197.5694757318,15650.6404354948,16032.0366620181,16289.8650880481,15658.4324494569,16310.747889712,16378.5118812637,7788.89790080138,7103.73588515863,8670.53775912797,15143.5508215485,15805.5274975999,15890.7124697271,15215.2823519192,15049.6183906315,16368.9759177619,14896.8983155207,15090.9264408022,16546.7392797304
,83,15392.8155219895,14603.3310205643,16264.6898363338,15527.3246394061,15124.8416096496,13922.0229704262,14097.7340303816,15339.4941419488,15532.4028101978,11641.8686506474,15487.9874215565,15875.3461439928,16157.4207606892,15255.3437927679,16167.2200345455,15969.4788203993,15883.52151264,16221.47725067,14697.5864108296,15396.2689340873,15612.8714849433,15924.7673341504,15674.5682139613,15822.7888203438,15798.2786143518,16450.1883383325,16354.0400503877,16257.059885661,16338.3919380314,16194.7773423145,14911.8098345957,15506.9281209743,15585.4883925911,16151.5112112218,15582.2025742836,15221.5449219689,15493.0496918063,15220.6307509113,16050.9741421274,15544.057008423,15614.0600555529,16128.6682905499,15506.4975721816,15877.5525212342,16117.9908596836,15934.2909544138,14975.5602064206,15492.1686157991,15143.2177359153,15339.3311464225,15641.8073089112,16567.9258498203,15897.2478484924,16493.9339222942,15854.7840246015,15826.4759352813,16211.9148294469,14813.4463485124,14608.3539747426,15263.7203218628,15524.4774302615,14560.2491057652,15036.2036070195,15934.1800215787,16222.5985981635,15713.5785678692,13626.060793174,16087.2751179749,15996.5357617266,16133.9916393572,16183.4935120558,15938.835967331,13851.0172204245,13762.7232101139,14361.7123479771,15188.5087681335,15321.1128080075,14977.3783694608,15419.5265103882,15774.6223186984,16033.9644458199,15441.1929289318,16090.9187379055,16160.934179781,7651.07396815751,6944.51359529322,8507.19997264452,14937.0475702181,15588.7368331643,15669.9188627639,15005.9026604528,14837.9472298841,16140.9218032402,14666.638132374,14875.4065354776,16289.0167915893
,83.5,15203.5168479699,14404.8133917641,16048.8301397454,15317.7889539478,14917.7802528309,13731.0648168515,13906.8504944111,15127.3945906561,15315.8599874382,11497.1601995968,15275.9720142674,15668.160588243,15939.7471279966,15050.3899760529,15949.0667267989,15743.8698813353,15654.8110984635,15984.5149079328,14485.084036078,15173.0590698126,15387.9703048987,15693.1882283663,15452.0406812807,15631.3963655531,15589.0897838246,16225.8154562378,16128.1308320616,16026.6255129581,16099.1849509398,15967.0064305036,14700.7396425802,15269.9259031863,15357.5692220375,15913.6624645768,15353.6407698391,14998.1543698223,15265.9560124737,15019.0993014194,15831.808784216,15299.9056182643,15433.5902353162,15878.4606675447,15282.5557040346,15644.3033704331,15884.1469166024,15687.4385814144,14750.5653484877,15256.2996518602,14933.9978220079,15122.0197901742,15418.6046597977,16314.1383682127,15659.7653429668,16247.1643948573,15635.3084001211,15593.2912156603,15973.2328905232,14592.6745277329,14397.3574666258,15036.5411822294,15293.3742664745,14347.9668293081,14799.8764766979,15696.1747269412,15991.5003928995,15485.4444532877,13440.0087810382,15848.8950625498,15761.2988855092,15918.7226030622,15967.9054516261,15728.2390702637,13631.9996830936,13546.7465608397,14143.0390606934,14963.4052668516,15093.4988671681,14756.59361533,15186.0624464314,15514.5459353985,15773.962042879,15221.8877578611,15868.2114503197,15939.6035206566,7513.93582631834,6776.46233281993,8349.07195916245,14729.420225026,15369.9455456365,15449.1209089959,14796.4055733391,14624.4386378023,15910.91088434,14432.3913777706,14654.8129587565,16025.1812504538
,84,15018.158978343,14207.9614349197,15832.7801954522,15107.5132010794,14709.6554990898,13536.981533401,13714.1860975944,14911.3292194001,15097.0713137956,11347.9766465914,15057.0816833139,15460.0721551391,15721.8755811445,14846.1834608642,15733.1288309025,15515.454285225,15425.8115616947,15746.2707014057,14269.222064456,14949.0211039441,15159.9295940439,15453.6138594412,15222.6616945917,15416.3053649548,15380.1038559642,16003.0397894151,15902.8961002195,15796.2499746957,15862.1153646725,15739.2595589393,14484.8737229414,15030.1769574092,15125.7249243284,15671.6083879564,15123.3911828279,14769.4909713484,15039.1953209126,14817.4988824194,15613.7001027685,15052.7550855388,15242.3997024584,15624.686286066,15056.2708381291,15408.0905027333,15644.9303649679,15433.4657084456,14519.0902762916,15013.289786377,14723.7909087192,14905.8515724744,15195.7415820418,16059.6919875007,15421.5316307488,15998.3466765065,15413.6834961918,15358.5237937628,15732.8900075372,14366.0535408871,14182.2035376183,14805.2880676539,15062.6950728102,14134.6478753464,14563.1054532718,15457.9538573449,15759.3274187436,15256.5771033218,13250.8519835763,15608.4307739506,15523.8931123844,15702.0322100922,15751.1141914035,15516.3217940349,13413.4610257316,13329.961415943,13923.1984435296,14735.5171689233,14861.2220280211,14532.9688321963,14950.1255750178,15252.8481195683,15509.9249452477,15000.4247657681,15642.1412567769,15716.2050613722,7379.14395641684,6615.15814136655,8195.22248604947,14520.3678817631,15147.2408320965,15226.8541984016,14584.0619006244,14409.4611059837,15679.4896118685,14192.7657518005,14428.9274478692,15754.1777576085
,84.5,14834.4261898067,14010.9569480562,15617.443165554,14894.0280425459,14498.4192906808,13341.7175625799,13520.3072645991,14691.7693700002,14877.4134837577,11193.8444559442,14829.6538944697,15248.5963754311,15502.7453078162,14641.6041994943,15516.6060958357,15285.628790852,15194.960267733,15506.0780188223,14049.2752919846,14720.6908730616,14928.6198523934,15202.8766957651,14980.6253298836,15172.8766369169,15171.2988417526,15779.2197531923,15676.3899585161,15565.0260688175,15624.28505828,15510.8496743495,14263.3416315215,14784.2973606452,14886.6197526729,15424.5160864703,14888.3928134016,14535.6591153532,14811.0409803826,14613.7541917671,15393.7526806127,14801.8591385511,15033.1333097486,15367.3034424621,14825.4730809728,15168.9026120047,15401.1012717404,15169.7680340784,14281.9779308977,14764.9057230992,14511.624838369,14689.1695835483,14969.4076159608,15804.1304210651,15181.3682140751,15746.0005670589,15188.3644482316,15119.2540924656,15489.7755300387,14127.4761898814,13957.3749478304,14562.1067909199,14829.6927601085,13918.6585804469,14323.3283740122,15218.6109931766,15524.565914074,15025.3227776795,13058.0174336359,15363.6520903731,15284.0624163445,15483.3513693893,15533.9534049885,15302.577029243,13193.9858243363,13110.311819268,13700.4219057976,14502.8718883329,14622.5032793259,14302.8226314479,14711.4537144952,14987.9710818354,15241.722626747,14776.3163471719,15412.2993276702,15490.1132123349,7246.50861729725,6471.53164725998,8044.14133958835,14309.2703603202,14922.442335404,15003.2545353225,14367.8063041769,14193.6170453008,15444.3844187627,13947.3643361142,14195.5037874359,15473.5089822935
,85,14653.4327138008,13813.6764577058,15401.2701628182,14678.5784484596,14285.1872298743,13145.0022048294,13322.6367612682,14468.8935435013,14654.1181007419,11034.9917057329,14591.3425148785,15039.8845972544,15281.5260031886,14434.5717978696,15297.4385284404,15051.0900527192,14959.7487524607,15261.7017979879,13825.6141084311,14488.6397966398,14692.4013197365,14938.2725546461,14725.8203035194,14916.5681587389,14958.7334744041,15552.9105788964,15447.3039703065,15331.9314376223,15386.4709831843,15281.7754649986,14030.2361667156,14526.6848799952,14636.4814979518,15172.6929970305,14647.5752486584,14295.7347033125,14579.7932581225,14407.5904978516,15170.3839990358,14544.9185607205,14805.3831139692,15104.9119263598,14588.958541237,14925.0557096008,15150.5165971963,14897.1716842703,14035.4082068599,14506.2546809461,14293.7893116906,14468.7882009587,14740.0414534248,15544.1718987384,14935.5524787344,15488.1614291429,14956.7312909902,14875.0067594676,15242.1581415948,13868.7921610805,13714.4435589569,14297.9748144193,14591.2421282661,13696.3419139058,14079.7101851407,14974.8554914876,15283.9436225295,14790.6297278756,12861.2758322205,15111.6100092353,15038.8807374464,15260.9504474565,15314.3836763698,15083.289578243,12970.8381239212,12884.5307986851,13469.4875784285,14260.9681299927,14373.6145088888,14062.8772878698,14468.1845402228,14718.3763494297,14968.3883792047,14547.2773087873,15178.8828286821,15259.9591156596,7115.71418598975,6344.4918224346,7893.16477967722,14094.9711605714,14694.473783075,14776.8128711187,14148.5671305072,13974.9823345149,15205.1037855157,13695.1431153204,13953.3369402607,15181.3311786885
,85.5,14474.7043323774,13612.8333774283,15179.6407139106,14459.7661084756,14069.1511224854,12946.7845202989,13121.9534257543,14239.4150915779,14423.8333321945,10869.4221065469,14343.8098288133,14838.0047418945,15055.4605766256,14223.7510860563,15072.7893768895,14812.951232547,14719.1120703316,15012.3080831227,13595.5454271365,14248.5746494612,14447.8946697048,14659.9136084215,14455.3004664599,14644.5031823297,14740.4632910296,15320.5788251258,15213.5050192895,15096.3293150799,15146.5774987978,15051.1629813054,13780.627627796,14253.8482707803,14368.9537117888,14911.2264292593,14398.9174863662,14047.2584176994,14340.0430157714,14195.3780549929,14940.7885394056,14279.2243835571,14556.7799231563,14834.4237167273,14345.6807064091,14674.3731399931,14891.6415529909,14612.6317695343,13776.7927482398,14234.1852014251,14067.5242694482,14241.2297929831,14503.0909049678,15277.7152334488,14682.4293989476,15223.1206999758,14717.6946465658,14623.9162332361,14989.1067924465,13587.0025148004,13447.7358181767,14007.6628129255,14344.179957542,13464.1769532383,13825.3934103921,14724.2655707991,15036.7290347251,14550.0937553187,12657.7041791057,14852.7265284629,14784.2178914759,15034.1886219572,15091.6149955869,14860.1764741466,12739.0948705763,12648.672223416,13227.2005560445,14008.437151253,14111.6034481829,13810.8907967178,14217.2515152272,14442.2449676341,14686.8940517803,14313.4141927935,14940.7444960869,15023.3061714082,6988.01144969483,6232.16172942223,7738.82252594729,13876.7910311532,14463.3620953551,14547.3142331871,13924.3295425913,13752.077505634,14959.6392358538,13433.6709513236,13700.5177269534,14877.0460428664
,86,14302.1742576505,13406.462821745,14950.0109640276,14235.6569350594,13848.4261226265,12745.4826738829,12915.5840118532,14002.1033066256,14185.5998314966,10698.7878942795,14085.7237122093,14642.0904581301,14819.491972698,14004.6031178369,14838.8429207327,14566.832989973,14471.9200001534,14756.9986558533,13355.771774378,14000.0093296759,14192.5766993605,14368.6173866725,14172.0754108866,14359.0203553396,14511.789373911,15077.8083565296,14969.0468212659,14857.1689346223,14903.4883191416,14816.5658136221,13510.4101653905,13962.5786801412,14081.2997996824,14637.0153914456,14138.5456994419,13790.0571603428,14087.8682893418,13973.2568537746,14699.6848419305,14001.402029187,14284.3322012301,14550.0083975354,14092.2772067864,14411.3024218479,14620.0923188693,14310.5574397035,13502.3566370691,13947.6037781199,13828.2578771521,14002.2359209307,14253.6692570408,15001.0216428473,14420.5259393115,14947.7875652925,14468.5681895309,14361.5356989206,14726.4967841267,13282.7294776122,13157.5861157389,13690.0616399418,14083.6733739055,13215.8845688275,13556.078235707,14464.3306465939,14780.6948492177,14300.9910246411,12443.8265751338,14582.3471341293,14520.0548718166,14802.5600544287,14863.9920024553,14629.6903250782,12491.8615064557,12396.522372034,12968.4325436513,13743.8496775448,13836.3905545961,13546.0727446499,13957.2612035141,14155.4850298058,14394.366797264,14073.6013215185,14695.7669975102,14780.4056791221,6861.11499826164,6131.92873914451,7575.50131062698,13653.3751630069,14227.11374698,14312.0661533256,13693.5633026718,13524.8584689821,14709.0869599499,13161.3504491426,13436.1629366467,14559.3696874418
,86.5,14133.3490500433,13187.5982454933,14708.5161076924,14004.7446713201,13619.8135590066,12539.8462475439,12701.3198430428,13757.0789681451,13939.2625267919,10523.4836485152,13817.7636533823,14446.5836462882,14568.7088058745,13770.8946973742,14589.4949352412,14312.1500289227,14215.5577862468,14491.7627692296,13104.6890219706,13736.9321342901,13922.8818615106,14062.6910171074,13874.219585048,14056.0317387153,14267.167160177,14818.9737623194,14708.9982723092,14612.8852140203,14652.0991997977,14575.9288075063,13215.1229254549,13645.1771382472,13767.7920623627,14348.7837722181,13863.8237822924,13522.254246787,13814.594257698,13735.8629345521,14440.1785503909,13707.2035408892,13989.5399045273,14247.6142638376,13819.9876290822,14129.6659786945,14330.1908876019,13986.0473261771,13207.0700581238,13641.4721877485,13570.0937137764,13742.7577092123,13983.2737139439,14710.8777711317,14146.2226413201,14660.7872692673,14205.9676657757,14086.5338125691,14450.552576843,12957.9352459793,12844.6279721228,13346.084111948,13799.3433626982,12943.725710871,13261.0436552628,14190.9490174741,14510.0621613768,14039.0888193101,12216.6282112878,14296.284607428,14239.7012521014,14563.8835056541,14630.1518421781,14392.6874455485,12220.636406528,12118.8968662784,12684.2335954188,13465.6785987976,13546.7441289096,13268.383497699,13679.8458902413,13850.9305959072,14084.3851228295,13825.3128033984,14442.6611049108,14527.335567808,6730.62497873292,6033.43665241774,7397.14753651238,13423.1549025103,13984.1590545541,14068.433094143,13451.25032009,13290.4764233059,14449.9303061921,12874.3932940613,13155.2614998798,14225.643413483
,87,13958.1814053536,12950.2216914258,14445.9195927224,13763.4812012514,13381.8318023694,12324.7303902983,12476.9087524724,13499.7834768416,13678.5398016581,10340.4165222867,13538.2152012871,14247.0329066723,14295.275154174,13516.5965558747,14318.7157147684,14040.9006710218,13944.5306107282,14208.8541563949,12832.9262017076,13454.1833687014,13634.0403964877,13726.6105772194,13547.5233927267,13723.1600955924,13997.9745913049,14536.6535793769,14425.1746574107,14360.1478824375,14391.5556561776,14326.1676014383,12882.4537613519,13289.6218610223,13415.0831070169,14038.7123433218,13568.3628522376,13236.4625543246,13509.4136366203,13476.7879762981,14154.5328613518,13389.1980951866,13669.1122590097,13919.9720187167,13513.976418389,13812.071463573,14001.9220491734,13625.8996706602,12877.5713348946,13301.2346136129,13284.4381801896,13454.6726191095,13682.6295949428,14401.6296067296,13855.4247897142,14357.7982137717,13927.5086702284,13796.8879246045,14158.2610025493,12618.6710506196,12512.7805917068,12982.8703774406,13481.220049567,12639.6885681288,12929.6073557805,13898.0853618242,14220.7986439254,13758.5266699,11967.4814009122,13986.8287146093,13935.5628788544,14314.0246301666,14385.3450834386,14144.6744475085,11915.3224800836,11805.2676017971,12364.7415534179,13170.5526975255,13240.0318595706,12974.2490055736,13374.6361511427,13517.770060508,13745.7856821399,13565.9591551985,14178.54586523,14259.8636280153,6592.37820885113,5927.25188118567,7196.65029630524,13181.1537465877,13729.0429415368,13812.9176573064,13184.9775226097,13041.5862327921,14175.7091777025,12560.9285876112,12847.959094584,13865.8173358811
,87.5,13764.942305912,12686.4093555404,14154.5830403944,13497.8060225138,13121.7154966906,12087.515328609,12227.8041815483,13214.8916396181,13388.6783575618,10140.5385522346,13235.6112428777,14019.0564314747,13988.5870607652,13232.5787526542,14016.8372325987,13736.3984199388,13643.5987618278,13889.854955893,12519.0422384381,13130.2957693459,13305.4563723718,13334.9721468668,13166.4094812441,13335.3874803094,13694.8382574608,14220.7182386141,14106.4868693422,14091.5469945217,14112.5383311539,14060.526308023,12497.456694631,12877.5963408633,13003.8939619253,13683.1705144613,13231.4400218167,12914.0354071894,13159.2302610976,13184.4032896433,13831.160672672,13024.4845758618,13302.7176657875,13545.2522938113,13154.0667187598,13432.8249178397,13610.4565687252,13194.0030011369,12482.1855312837,12898.3510552472,12959.0444078451,13125.2461249543,13337.7504980321,14054.7276314726,13530.2956717949,14019.0690036222,13614.2563655013,13475.249783469,13831.3455979423,12265.8498119816,12165.8943713933,12604.1751663438,13116.4380660552,12290.2007910678,12545.9635165404,13568.4725559405,13894.7413676786,13442.2932861678,11669.1564586644,13632.589802071,13584.7482818316,14036.3695864474,14112.9608319573,13871.3283909481,11559.5113250946,11441.660927046,11995.9311716801,12844.5556061234,12899.6104334639,12646.8873256669,13012.5583216407,13128.9228494669,13348.5400515688,13281.0147616714,13886.5516158377,13964.2610011414,6431.38153806173,5807.66389177161,6966.76325584394,12910.9605206317,13446.1890267514,13527.9841812135,12866.0879736618,12758.3521625218,13859.7858908708,12193.9724361133,12486.2980880172,13447.2239919526
,88,13540.9205141017,12389.0404083464,13828.2166465382,13184.8038135496,12813.9418680502,11804.8641005187,11923.5959982841,12874.1635412971,13043.0958903879,9908.96096037659,12887.4584417148,13724.9103151855,13639.5782538922,12909.3094831953,13672.2239072395,13374.4308150106,13286.8697578554,13510.2737469248,12147.9236742624,12738.9943235872,12910.255289534,12853.8444118572,12699.606149133,12864.9504109061,13347.2195756754,13856.4761143825,13739.8232355491,13798.0644868452,13804.0845894686,13769.4088399015,12036.2965850936,12387.2479004898,12511.9809257347,13247.8691415389,12818.8715507944,12527.3853561373,12752.339342387,12842.8157234775,13456.0568394868,12578.6877826425,12855.9179209145,13087.5068287184,12706.2024698571,12960.7316251572,13123.3138208616,12644.4502454913,11979.1412734306,12393.3760494441,12577.0428269366,12738.8959778688,12934.3152290144,13621.0206711169,13127.1406809015,13599.4331166373,13219.3041767706,13086.331879551,13428.930975214,11890.7490973498,11798.3228841814,12205.4824526052,12692.7863849712,11878.2554673227,12100.2268147169,13174.3119327766,13504.0401443331,13063.9683851187,11289.7776747782,13194.8558828388,13149.7826803943,13698.7059496373,13783.6681062449,13545.5829526457,11142.6785210958,11016.1858640852,11561.7795204866,12459.9759382916,12498.6036924158,12258.9892094033,12553.5453142161,12645.4525397798,12852.4550268857,12942.3528491108,13539.1673999523,13617.5688176131,6240.88594990191,5674.42011200741,6708.54902995103,12584.3866003268,13105.7020141602,13184.5094732484,12474.8726344288,12420.2149671346,13480.0397477089,11740.7181708031,12037.8574999096,12936.0657260138
,88.5,13245.5295990202,12035.2158491087,13440.7558262433,12786.1089124515,12421.2336705616,11443.2049830071,11536.611706948,12440.5656296821,12604.3771096431,9622.30985354386,12453.0347189115,13319.7932993692,13216.6343467416,12516.0424425563,13251.4962771877,12926.7363251823,12846.6369920196,13038.8137156479,11700.6668436173,12261.1324872028,12431.2396305693,12251.5327884423,12115.9774764269,12274.0576743988,12922.2074484756,13407.3735601916,13287.9086192974,13462.1334672025,13446.2939497041,13435.3036546245,11471.9926512347,11789.6643313019,11910.2109610681,12686.3320656388,12287.8570023136,12033.008758168,12259.2613979989,12412.8811345909,12991.7882533497,12007.2123521965,12285.3833607022,12499.109192675,12134.1935018258,12361.261199244,12503.4976979753,11938.2456057093,11329.3110647767,11747.4272789853,12102.8629567686,12259.3093595174,12436.8735855492,13023.354684706,12570.1600112326,13022.7849194815,12668.9196419634,12563.3242886834,12881.9303157687,11479.8038519947,11398.8323834386,11773.7034168541,12180.6106685442,11371.6492749871,11565.8515518751,12682.3613656908,13011.5346640545,12588.6993467388,10786.2123513884,12632.4751855544,12584.8079007095,13273.8569806659,13370.98153857,13143.5435771738,10644.4037491399,10506.9283567876,11030.8790861685,11989.4226986376,12006.892587611,11783.8910931733,11959.0547938726,12030.9986094745,12221.3573604982,12500.9495804526,13087.3757214189,13173.2359721338,6024.11556469921,5528.18787903773,6427.2034000917,12170.0104627582,12676.6493841021,12751.1310663187,11971.0157250397,12000.981281475,13005.8452177713,11171.0402082859,11470.1360133914,12286.7157321952
,89,12796.0464700436,11556.3754024291,12917.2880251653,12261.1725281509,11907.6805089404,10967.6078261086,11038.8580355387,11880.6284360215,12037.0397953888,9251.78079027428,11880.5647196194,12749.5727933291,12639.7943923322,11973.7618898153,12670.8486065487,12353.0759866065,12285.6068576071,12438.8571585451,11137.511248295,11673.5355916199,11844.5218743035,11514.5902997184,11398.6880539743,11549.6354931375,12345.9559976264,12789.3470094746,12666.6759637343,13053.9422681019,13008.0697008466,13031.1496577846,10786.9972415601,11067.7927565538,11180.5573289138,11956.4625356835,11598.8164183708,11391.7574420156,11623.3237597133,11817.64391736,12360.0538679478,11275.8004863011,11555.0534901446,11742.4958655003,11417.5846518149,11608.9439856982,11725.1867436342,11051.8003580383,10511.5299972207,10933.9671367453,11473.4486774992,11621.2051591486,11777.4800763517,12173.1641449749,11773.0171239379,12195.2694144866,11885.1474117229,11814.2437129297,12097.3466426109,11013.533353537,10949.3093052076,11290.9176623338,11521.6643691917,10715.7943563514,10890.1533617025,12052.5828418586,12377.220836978,11974.8613156951,10113.3360700574,11900.3792103122,11846.8919507087,12716.4607114317,12827.6048128732,12623.0012864271,10024.4708036303,9873.63428070663,10355.116928674,11407.8895839676,11398.9127586692,11195.8888740453,11204.2515470763,11258.4100818957,11426.2983579607,11882.0522122953,12450.3748260528,12549.5488725255,5784.26870851924,5366.00356221297,6121.2437987251,11624.1214326716,12114.6428017992,12183.6608666826,11310.9354463136,11455.2364862159,12387.0728526303,10465.9338824997,10763.5822727256,11482.0179722348
,89.5,12070.0082444675,10851.9060593046,12134.9070574468,11551.3307409696,11213.9298086903,10322.7418205874,10399.8886096808,11166.2926678309,11313.3244760182,8775.94929489222,11134.4963674589,11977.8744702564,11802.4698472781,11186.2107228316,11827.0294181785,11590.1065455047,11544.3348467978,11644.1118856874,10409.1260646505,10937.9310061785,11102.6605141042,10651.3357952522,10557.9200292682,10700.8068675571,11520.1409468939,11903.6227258852,11780.7470876554,12542.009567773,12458.6224700109,12519.0494204654,9972.53131246923,10216.3474487979,10317.6391277222,11024.0157751887,10720.319997539,10575.5532513988,10773.5214390425,10979.0243276916,11474.3254456345,10373.252191862,10651.2764521724,10804.862202601,10536.5013192063,10689.7549705353,10776.994950372,9981.21720090815,9521.74962620375,9940.39174198181,10621.5403261428,10757.0601794043,10891.0672949338,11074.4882509135,10736.038309496,11117.3330725634,10869.7826399618,10833.034691193,11073.3001502248,10457.5215633948,10419.7709142466,10726.4253233475,10652.8089794087,9868.94329943652,10031.2607811595,11224.2185390476,11538.7650324043,11163.8829655397,9255.74226879194,10943.0192796729,10880.9231847209,11977.6431725981,12104.7860448658,11937.2396184354,9246.03084711192,9089.11343450778,9506.99953438178,10684.2507649251,10642.8005538908,10467.5941196931,10271.3512914916,10311.7819701629,10451.3550385523,11051.3712738377,11589.3939411704,11705.3813598391,5518.83147053836,5186.34131062446,5792.6473307465,10891.3824933644,11360.3749997406,11419.5289677303,10475.246176055,10747.1640344625,11581.6717758994,9624.9425486115,9914.23763979325,10520.294175762
,90,11065.5409826979,9926.86197330863,11093.0200987252,10620.7166584528,10305.6088796939,9485.63027781073,9600.45567595485,10280.7932356987,10415.7573969749,8182.71258887251,10202.515747461,10995.6075321101,10718.9680401862,10170.0394246835,10734.0086476646,10618.807249602,10592.3580079871,10648.2016291221,9537.42451485258,10045.9619387919,10202.1398774524,9676.72273575971,9608.06224709885,9746.26251514277,10460.1997737255,10770.7596446253,10652.0392680922,11844.2339245027,11725.4191566424,11814.5594197438,9050.52452078488,9260.89242949701,9350.25764807654,9923.48193472138,9684.78174311537,9601.32371831978,9741.11541572744,9921.11786812045,10360.6777501726,9327.84708533286,9597.64220438323,9711.74970880218,9520.97834708089,9633.11242097362,9691.51508183261,8804.74604721961,8434.9250600191,8833.07828539338,9578.87365253725,9699.65158020937,9812.04492633024,9774.06509470646,9502.34683401129,9832.56905032902,9662.0009100135,9655.26549130608,9848.60739968067,9789.50296994799,9786.08123951971,10054.1207202077,9610.06123812325,8871.63565938488,9032.41691395152,10204.1286581044,10496.9111500669,10159.7725615649,8271.45661720828,9804.22558092931,9736.67618721879,11043.5748303544,11187.6105691226,11071.4810260118,8351.76083798729,8195.5735459409,8531.28886217426,9829.69480891129,9748.54483832819,9612.40128317341,9217.48536510896,9240.16398246724,9351.27418795913,10011.4344882035,10504.7670678603,10636.5096266602,5258.43345357404,5003.19988665286,5464.11610711721,9961.31501379004,10398.3736233746,10445.5273912667,9513.17885490211,9881.60752171749,10599.7107807329,8686.87031248611,8959.38747267731,9451.41967620779
,90.5,9813.33655802004,8807.89412620919,9818.22610090889,9509.6982599994,9228.24017126414,8501.98967121907,8676.08544101213,9250.19788697675,9369.93152863578,7496.54290035077,9119.88895205789,9837.14152138481,9424.20033063372,8957.83062531385,9429.36522781172,9488.89084062282,9480.59799764995,9503.54990172201,8554.5099920047,9044.57182669701,9188.15525600136,8645.67742001761,8600.63617391709,8725.59236862622,9203.17945060974,9434.60964944526,9322.53075650797,10910.9514861428,10767.8505652976,10873.2285093199,8076.40993470846,8250.90480051786,8330.96897915594,8739.33062964393,8570.11513556931,8535.4542828437,8569.7252043036,8690.80753632001,9063.87447939109,8214.99823715339,8469.38665253174,8539.24630782564,8444.79793520232,8509.98309387895,8542.51975235637,7630.92554650953,7349.89764806944,7708.02879846872,8395.16826228211,8498.04594200371,8589.15855787586,8381.32235026399,8171.21498193493,8443.02865692289,8361.98007463141,8359.62500197148,8510.91547305781,9009.37349066516,9042.96753069313,9264.41016047131,8437.29520189055,7776.26330419523,7937.6193479018,9057.05253930343,9315.52034907499,9023.49697314658,7236.37384420286,8570.74110077571,8500.99102244778,9944.44396964877,10098.4573986105,10031.1504781883,7384.49510795271,7237.66151181766,7480.4906955307,8896.17204219635,8768.69589529811,8682.40019408581,8129.60425864953,8129.37305196017,8214.94301332875,8817.38775768166,9250.65658256324,9385.77964945665,5019.03727377875,4822.40699805481,5147.68864749479,8890.16687051755,9283.98917277393,9317.80764114486,8463.6305737894,8897.33432102131,9486.49366859436,7719.26920617189,7964.49900342808,8345.05892277884
,91,8386.97343439647,7555.97801758042,8378.91899166386,8306.38518471033,8067.63442255787,7448.34308485778,7689.74941133011,8157.03390587708,8258.53438046885,6764.57706093388,7977.58051475522,8598.40574814873,8001.90234364519,7629.65930208086,7998.97073175318,8268.65808660198,8275.61776274125,8278.29421273646,7509.17841676263,7983.17439405261,8109.2095593975,7630.67510353838,7607.8098092264,7719.13197479997,7835.21645083388,7990.26218094212,7887.93990503939,9782.80130962934,9631.9013781944,9738.14479582641,7121.43523279657,7259.13187278844,7333.69258647093,7579.20518417364,7477.50656447788,7474.91059511191,7341.24399756766,7386.05951630395,7681.83873091538,7143.89215336851,7373.43479429107,7405.27229099145,7396.33650190514,7411.06172161233,7424.75980845691,6565.64131406035,6367.43124749343,6661.52975426032,7163.4650962477,7247.50561205234,7317.01674596106,7066.85858874736,6905.33108422061,7116.93134005261,7129.28484912995,7094.87272336664,7214.87856395203,8145.63015492295,8213.21884248401,8385.58825648157,7220.0991050245,6674.28987659686,6827.63454944909,7865.25456833343,8080.93137602989,7838.78514257844,6253.18386743356,7345.76245373756,7281.26459194807,8743.15478397091,8897.39567582086,8874.98855055883,6413.09038685921,6286.89662462779,6443.06263155998,7939.70841723775,7769.30610354119,7733.33766034314,7099.17728824993,7071.0934328656,7135.66663967677,7578.79764964293,7939.23818944991,8057.95486980669,4802.69901047643,4649.79434993753,4851.44431152868,7751.06648634285,8091.37012302568,8111.46147295058,7406.42188946093,7846.15183570647,8303.3426252713,6797.43579084514,7008.2723164929,7304.94167938016
,91.5,6959.55805079002,6332.9531478611,6948.86185446903,7104.61040963234,6913.30754686098,6408.82400199008,6711.77343824282,7081.56702666476,7164.81788281118,6047.25718352169,6893.6475574088,7407.57518404687,6637.88641470993,6370.38050332238,6636.89631998121,7055.88984605718,7069.9727131351,7066.84981406382,6499.22209179361,6929.39797668541,7033.86711193363,6688.81235150334,6686.70890279817,6782.37364461405,6531.57656023168,6634.05935066888,6544.19165084161,8532.35087169113,8397.91229331864,8476.70431558334,6250.73214755618,6351.11869872759,6424.46226881314,6546.18763333655,6503.25188291399,6513.80479536523,6206.30940111975,6186.75020233435,6401.07626642211,6206.77169130358,6406.26221941478,6409.54984313258,6449.04991925656,6419.53827991211,6420.81933278564,5691.84319942577,5564.79500079918,5780.41488540965,6040.76091148464,6112.54077510376,6165.7018168241,6028.49720673053,5898.26887888129,6059.18227981576,6136.74823170347,6063.64726856146,6165.31288264386,7247.6320479528,7339.49379718476,7466.7225781044,6112.75300382889,5711.21593298009,5849.09618773907,6730.76950733674,6899.25766612304,6709.56960204307,5433.81492314104,6245.02500066635,6192.11328552662,7545.74618471182,7691.59190073787,7696.33869051809,5554.15327037602,5463.06949111444,5554.90661748932,7014.04529395674,6815.16780176077,6823.55163478754,6206.12379972976,6150.49695978792,6201.4980661581,6461.31966296157,6747.84610270047,6834.73526708115,4616.49613528211,4500.24726503954,4602.47413439196,6645.50953029984,6925.19353090433,6931.54207017624,6453.14044076754,6829.13799443414,7166.19528165391,5985.00603470297,6157.62373553981,6392.48264810504
,92,5813.93564900141,5369.87782559257,5808.35768885141,6045.2743691846,5902.34277069716,5513.11119287029,5819.54017342745,6104.67478611053,6170.68376350554,5401.75451325517,5959.08376221543,6363.05591046414,5579.43613379136,5401.19161386688,5582.6364418531,6007.85408538977,6011.76504385015,6033.64564045507,5661.70372728452,5994.55914021982,6086.95820917085,5867.06509357254,5882.14912972023,5958.01532590635,5523.39068859942,5597.39940549666,5518.65993936464,7240.88263988764,7144.12999972955,7182.78961673138,5536.99032879719,5595.8457605976,5675.3488319756,5743.72343706643,5741.93972874512,5738.04882784284,5351.66374201293,5280.20154635897,5431.261605236,5462.31222163395,5630.10775545331,5614.62717073453,5698.34243488974,5626.88626742149,5624.90393758411,5076.53832804004,5002.38917215744,5144.28996484934,5200.03992625838,5265.70514352378,5308.33753895649,5285.89537198921,5174.0113377873,5296.17360516105,5403.64683978334,5298.81895088365,5389.49112343822,6397.14914753543,6496.05682718565,6583.4921887992,5287.4682537271,5009.62834445287,5134.00988120156,5804.76918568048,5924.52930650858,5783.49737064593,4845.25428098108,5415.81017301044,5379.26532911332,6471.79218449513,6599.63773559012,6609.53939503161,4925.54478124658,4866.55157154992,4915.98729291532,6207.0223098059,5996.75870284786,6036.39370094991,5528.4810410605,5446.01210020703,5492.48480798572,5554.3526199971,5775.26148393662,5823.08756679527,4483.00144749176,4390.82026508476,4426.08426705703,5708.43241303577,5928.581175464,5926.13240399791,5689.61402848045,5947.63948396755,6190.74248624918,5333.39177657242,5468.29108694668,5660.67624126513
,92.5,4993.74585498801,4688.4243834866,4994.98137621953,5250.07801600351,5149.81555291627,4853.10809673814,5106.80104339525,5317.9915370554,5369.7620892266,4885.52784678759,5248.94535004079,5547.65805023048,4841.15644685786,4729.12978760127,4849.55439772105,5230.42815808625,5224.05708408199,5264.50911388641,5029.09223769379,5269.1814803473,5352.17845325955,5231.85664529165,5258.39768031795,5302.63280384631,4823.43069965372,4885.2843651675,4814.44313821809,6106.06871051754,6053.28472887401,6056.71814726455,5007.17459160538,5027.93909971224,5113.31054713569,5183.60310749175,5204.91949362997,5179.76743422916,4770.61197298315,4664.87633435391,4770.6382984513,4936.86095108955,5077.35853233452,5052.55510818462,5159.6593133854,5064.01974361752,5062.22218511205,4687.05353203937,4647.32594469405,4728.45520599199,4633.62808213241,4696.64066439829,4732.18403229565,4823.0320877809,4719.65755128125,4815.61614823119,4923.39006996144,4795.91074002476,4881.44242095892,5674.33938537867,5762.61189318062,5820.32483986895,4730.78921750256,4549.30506288235,4659.79562844726,5141.14459419449,5224.29347292202,5118.88818694657,4464.43662840606,4856.01849631644,4832.26948487971,5611.76374779779,5714.24714444192,5702.11648690877,4507.73439149124,4475.12335865075,4502.44991043482,5562.18778184114,5365.53385615617,5414.89953435163,5055.09131489926,4958.46399914002,5005.4032051722,4911.80315595763,5082.66530177576,5088.13862404341,4389.82819089656,4314.07904577172,4308.34237174197,5020.17599897233,5192.8666992244,5184.94935711573,5112.03466858995,5266.55264296897,5447.87870442854,4861.43892556305,4964.19792251238,5130.11902525072
,93,4484.43615102756,4273.96679329941,4494.51225734379,4720.64443564972,4650.64168904044,4418.48934810678,4606.543817156,4770.90263537482,4811.87242017067,4504.84085348878,4775.71941254409,4993.39573099597,4402.92818416304,4335.41283353163,4416.26960564061,4708.99654582135,4693.0128511711,4743.63031300722,4599.74455160879,4759.5240340722,4836.56542030098,4790.96623651002,4824.80232243151,4842.21797884607,4410.04664709271,4472.53432054594,4407.15373031624,5266.44672920743,5253.35850570053,5228.01325464437,4648.25985993154,4641.30583415067,4731.50736193386,4825.4965183178,4855.48380404047,4809.00167957545,4436.08837656504,4314.97707887048,4392.68669260287,4605.86528386017,4725.49487804557,4700.78182025599,4801.62990010207,4702.97054374526,4702.5237400093,4467.95537814479,4448.51362850759,4485.46563471609,4312.78906505321,4376.1954116844,4407.88918644777,4586.86891874196,4487.28266133093,4568.3940881993,4653.3659534071,4521.56122475497,4603.97684851241,5124.76428902699,5191.49764638592,5238.19979087638,4414.94778673068,4298.8849925343,4398.19195805893,4711.44841595908,4771.02584381748,4689.92378936313,4253.79868173579,4524.6479377065,4510.74248033203,5010.84310236508,5089.67205956905,5054.50836985225,4273.79383824689,4260.59495551061,4282.22804384137,5074.40532595744,4916.57447635808,4954.56887695475,4750.30282146334,4653.49255919017,4703.91074290088,4518.74746962166,4657.86107885543,4631.03142438177,4327.99119474751,4265.93237806845,4239.05708377306,4566.57336224511,4708.06461967255,4696.1514915243,4718.13686771366,4781.88479878902,4929.80223278924,4551.06688814502,4631.49178130087,4783.74444282758
,93.5,4249.41684156351,4091.35060331127,4268.09420295903,4411.65161140654,4360.77782693973,4170.08492357798,4289.48903466277,4427.54435124778,4460.65794579664,4241.88011698437,4492.20073279951,4652.48404375826,4217.32075626062,4174.8478771005,4234.59403359139,4410.18275587063,4385.11053638016,4441.96023981808,4352.24228206675,4443.48598215428,4518.7098905076,4510.48259270663,4546.75444910116,4541.51041528943,4234.52093550031,4305.61221010532,4243.21756916686,4706.23353000816,4725.71554905337,4678.45054016678,4425.31248763464,4403.05479226902,4497.02269519245,4613.04066366675,4640.4750127602,4575.27145573222,4300.68330966048,4175.56177703446,4242.56474763634,4412.42400676431,4520.19223721243,4497.98258984571,4576.76277500583,4493.69701510065,4493.7540634743,4359.24291762663,4349.46208306599,4361.37778910216,4184.67812756707,4250.2694700265,4281.69210183742,4489.78611043948,4393.18832574791,4467.46102007112,4513.06699433699,4400.06767247234,4479.29316784259,4745.8961883453,4785.99006480879,4835.27289010228,4290.15045555888,4205.53023467621,4300.98538948423,4471.66539332482,4520.00100145578,4451.90253719936,4158.25907834964,4365.6349468841,4357.07727548135,4637.24492049583,4696.49408261996,4637.35781600604,4181.81249964064,4179.90891182241,4203.7096906693,4730.17984708979,4623.67112289955,4639.27718317476,4564.73681350388,4481.17724754257,4536.16638886552,4318.90122749254,4442.55352841263,4396.19935233262,4293.1062109259,4241.28790603576,4209.47332452174,4309.90198939089,4435.34080576566,4420.81816710752,4483.14516073071,4480.57771598205,4617.37828945122,4362.36541854746,4429.06836136876,4569.31840303373
,94,4199.09989551259,4054.72079574218,4222.88882246659,4272.93711177738,4231.80022216005,4061.78417749907,4119.16090834687,4242.7039382896,4271.82180297654,4074.87198142956,4338.76797077163,4458.5131227712,4184.37653586537,4149.14941661703,4200.44055514293,4282.24498058297,4250.10145721022,4308.88975037242,4235.05530832357,4284.11998159318,4361.52618911112,4354.20644919215,4390.64397053509,4365.14492712825,4202.01827531982,4278.33563966957,4216.88224139025,4386.37162489572,4425.88609309234,4372.32831433511,4301.2275211326,4276.85450379669,4373.76194061837,4493.32704055424,4512.40646378356,4432.87771996936,4280.1721555504,4151.39950930193,4218.54303446263,4306.25092802114,4408.17232002534,4389.32481242691,4445.60386645446,4388.74556676386,4389.37734026106,4311.44749771084,4304.01012698563,4306.14013406351,4163.00968822105,4228.76184656437,4260.40363123201,4429.32770974067,4336.61986545099,4406.23095365159,4415.96419511486,4326.65853857456,4402.84293875397,4513.88808773834,4530.9603825097,4584.97372716291,4270.44251516456,4187.40288632389,4285.09372121742,4366.51471851461,4412.09498632406,4348.87484108466,4117.20695366616,4314.66093543299,4307.97587213165,4434.91657282499,4480.49508716848,4402.75059876348,4164.12657992268,4164.06914390334,4190.08232859749,4516.82344999009,4456.22074141143,4449.73981661938,4455.4004315388,4392.45564079641,4452.71976040491,4226.8947245276,4344.06158660803,4288.04851527382,4278.71353908697,4229.88284326631,4199.8344190556,4195.92272731845,4318.54189554939,4302.90830639545,4348.00402788208,4316.36352626842,4454.11889417611,4257.56243677581,4318.44749066892,4450.04450453704
,94.5,4182.37782611946,4038.51349500401,4208.29813113075,4223.24939574805,4184.86775644829,4020.2416453229,4043.34646049708,4161.34984666384,4187.58229416814,3954.86489770784,4256.40911305342,4349.94402507969,4171.03041995567,4138.29427567417,4184.66514791383,4231.17533859143,4200.50323476987,4244.02880026795,4161.62470861494,4207.79981607753,4284.36185009142,4277.6722513415,4311.89939681969,4270.66819372576,4187.9386576935,4266.212869543,4204.8199524179,4252.10745775754,4301.39085139494,4248.27829588075,4218.88895911757,4202.55656525056,4298.70475027705,4399.31361495619,4408.19575017149,4323.28043823807,4269.70810637037,4138.77711864771,4206.77415570228,4242.47154361754,4343.03739561268,4327.80016583147,4342.55358592409,4324.98215569481,4323.17078763817,4274.76780053864,4267.55393624111,4264.24921668932,4151.32880964684,4215.30172899935,4246.41489599081,4381.90331498243,4293.71937773867,4359.45188491375,4337.16915644889,4272.34574353425,4345.69813499469,4364.71612577579,4360.06007521772,4428.07635746728,4257.86152151938,4173.46841485283,4272.65836042211,4308.18987455576,4358.67729945557,4295.02272379981,4085.80166235869,4285.91669602204,4277.62816992555,4333.17016988571,4369.07149086256,4281.70265845349,4151.60241557722,4151.38513260958,4179.52706882896,4352.56846261898,4345.99762396585,4310.77847025861,4367.8511692617,4333.57876977813,4397.69808933553,4185.65563162891,4302.26308763593,4243.3768680407,4268.46423142049,4219.86950593059,4190.70420030642,4146.55464426592,4275.00055251806,4256.7988036363,4243.02088470713,4211.07202785066,4355.94870813058,4195.16515205591,4254.82921111044,4380.67568816029
,95,4171.89043952834,4029.79892077246,4201.0007853035,4201.62345570369,4163.73527581325,3998.1247670431,4025.47512659567,4146.73662142668,4174.82367971515,3887.87948157831,4214.25876601121,4288.40381986272,4161.88270990845,4133.42544344086,4172.80050573056,4209.21243071479,4175.84794356558,4216.27370069146,4124.07970514758,4178.39661997255,4256.01703951364,4247.45298473738,4280.96921948998,4232.08180933008,4176.95229423998,4255.96330974433,4195.70469974811,4219.74062490412,4272.8913070508,4221.6543048551,4171.3007198857,4175.86157393563,4274.33623221831,4325.81520576856,4326.28810438789,4237.77405856468,4261.8641036005,4132.33381222991,4196.37198131857,4207.39100729548,4308.84552786657,4295.87132721914,4260.08875384718,4278.99790298906,4274.98430703978,4247.94509735186,4239.432011432,4234.86937133392,4141.88024251349,4204.29240065905,4234.99538650773,4354.1139240255,4267.20728675917,4328.51444617588,4286.41463510444,4240.32094462502,4316.53572804906,4293.69746588952,4285.05893483331,4353.61066847005,4247.6238837156,4159.9259371602,4261.30829228718,4266.57961035062,4320.8708414511,4257.35318843536,4064.47292111115,4270.00552846228,4262.11526429997,4286.21740923067,4321.80903146471,4234.18992051988,4138.77798896313,4140.49663641578,4171.13663958826,4279.48068408459,4291.6909045622,4251.81508067526,4301.16079524677,4292.83449705624,4362.0120738628,4170.19385589726,4283.87974234057,4223.71420697502,4259.83751077134,4210.16042807379,4181.51709901717,4119.50682648615,4256.7772186386,4236.67706138562,4198.48278296762,4170.77857660155,4318.32770071932,4157.31745033442,4221.30930812421,4344.53722977434
