,Cycle,A1,A2,A3,A4,A5,A6,A7,A8,A9,A10,A11,A12,B1,B2,B3,B4,B5,B6,B7,B8,B9,B10,B11,B12,C1,C2,C3,C4,C5,C6,C7,C8,C9,C10,C11,C12,D1,D2,D3,D4,D5,D6,D7,D8,D9,D10,D11,D12,E1,E2,E3,E4,E5,E6,E7,E8,E9,E10,E11,E12,F1,F2,F3,F4,F5,F6,F7,F8,F9,F10,F11,F12,G1,G2,G3,G4,G5,G6,G7,G8,G9,G10,G11,G12,H1,H2,H3,H4,H5,H6,H7,H8,H9,H10,H11,H12
,1,160.642385880912,153.339519094081,189.720970466366,-110.375492634714,-160.847886448159,-171.281531692212,-161.198637974437,-26.5830368641809,-10.3781046730983,-12.9362164158028,64.819699340238,-313.866847544046,61.270346031818,118.201888272429,129.366534207428,-36.3066100178075,-93.4958955230095,-22.08798938168,-205.53651963986,-91.8260520855147,-233.412062704145,78.1097259425042,59.3957242660281,-118.867345532811,32.9592629677518,89.3436165113981,73.074082940514,-52.0229914991733,-138.480455824076,-7.14957793575468,-97.0155737933474,38.1300608752981,-54.7311988714528,-481.818902986353,-158.380672320385,-275.967618309993,3.29125469728206,78.0307880092842,68.5531139155437,-70.7367604918327,-80.7436797267155,-127.5545172312,-382.001530560829,-85.5121004576431,-81.9540497253529,-64.392997780109,-162.66822163863,-186.185997576935,9.53658146984799,59.3033234993027,49.4221565918997,-368.044654918564,-105.172140059469,-151.127586014687,-347.374012795881,-205.810260441871,-367.687255126932,8.04770647363148,-53.2362187922099,-272.01815932689,16.4600089522264,68.2091067928432,38.1380259588759,-54.961518538672,-43.75775240445,-99.2075856468055,-190.152333976712,-54.5762276131463,-40.9708905722964,-68.5093175410711,14.9199677974393,-75.1733824453277,9.8400244473678,62.1831389450663,64.2157388222495,99.754889511325,38.9999376485575,-71.6724814930076,-256.001139826913,-277.938080347831,-128.12916418947,14.390537248727,26.3562739809568,-13.2097189181832,-51.6832136047851,-1.69780540460215,1.07965790498565,-149.886869258353,-87.1081930162782,-42.4023461417937,-110.303618266567,-40.1563297273597,-342.440553653043,-22.309820356706,-211.765999398711,-66.3247986358365
,2,242.29071149369,227.025485646847,246.017957845965,-18.3324156124663,5.7955616795698,-32.5495645970477,-20.4662413741517,23.7550398947578,34.4579759639291,-24.6605907888261,60.7945227278888,-77.6504338688646,68.4404279168748,113.850118627699,84.6345470808574,-11.1838028168504,-18.0857936416742,4.90300655877854,-36.3184153135844,-2.54281742438889,-68.8098320696463,47.9558790774827,28.3566319700913,8.76325519409329,49.6775740745306,61.8704210399528,49.9144851455494,18.1497879103317,-78.724565654481,14.1809709849149,19.3739329465989,37.9524787886867,14.1211289296634,-69.6721201656237,-6.02615594508643,-24.267285575881,32.075906620722,50.2834934226385,55.0282672736903,-24.5378203846831,-38.41229702072,-34.9446673987923,-59.2693835726768,-24.3655450389797,-38.9186934167974,-22.2726340878762,-57.1074129425269,-65.7041711254187,36.7049553783836,46.5867669994832,36.3103975409203,-94.327831988795,-14.4442563973898,-49.7152367642993,-109.330501479857,-71.7562707402421,-119.469815661098,63.4593762487839,43.9439841643543,-79.1109601821772,36.1639222642425,57.3666628988458,35.0611083571093,-24.6287131643203,3.0350182166676,-19.0257146911772,-61.9586912079085,-8.77896283041719,-1.84041014464674,29.0731706710358,81.2798811125558,1.31611508921014,30.7354241808061,46.0305058831709,49.8832150525468,61.5099400378203,38.9368050987414,44.7726335342068,1.14796721617677,-3.60796710742034,23.9318682641388,22.9729739284776,43.7049589661547,30.4176643079645,-14.990555626684,24.3140534816166,14.7706898919441,-18.6380721050537,-18.8100687219039,-5.05285117686071,9.44719709734818,-1.64183221051371,-92.5314385075471,17.8300725676054,-2.59707270650142,42.1955521960062
,3,304.363736538018,280.723303825841,296.648705021625,3.54859844769453,9.62179268314685,-1.39253388611178,1.91028904934137,9.58552000223699,18.7129260372085,-1.02923691742581,34.6225460766691,-33.9377495862263,42.1575989995026,112.680380357711,42.9675709290641,9.60030918935263,-7.08603937629778,9.89615249219059,-35.8595888514719,-0.721024570271766,-11.9311537368449,25.7664389305401,27.0580680218609,9.63506909980151,32.8782897200017,41.8877240853026,31.6854487941218,3.26980953579823,9.87709811215882,9.3895178745006,5.61661157702474,22.8879628514969,12.6999036434454,-58.0804329535767,21.9239227415528,21.1781584825476,23.9413120335284,32.9994442487841,43.2747388762364,-8.89048216413721,-17.6524464075701,-17.6502910179333,-7.919906989624,1.38949454062822,-2.44295762739421,-4.50487856369546,-19.2966771646434,-3.68865329874097,33.2996143612099,32.9228719612911,25.1779948066369,-21.7743049151049,1.02804300368825,-7.11111898779927,-41.8581114292938,-22.8390095911109,-23.467488587472,51.1034097271004,46.96447623534,51.3003552525843,26.1127845787487,40.1302432418088,27.5442737179828,-3.67193365236199,5.99300506163672,-24.0165147282005,-14.381865574338,4.22194603219396,-9.51502621718555,23.7696207938752,28.9293417426234,43.3063526502665,23.9497074057927,36.4833117588087,36.8361183581092,43.4664482028838,32.9916707050379,54.2297926524952,3.90741570594219,17.6111670140108,12.6144965536369,29.4971693043581,32.7317071800044,14.331235030666,0.892956717551897,11.9593485047499,9.69442337986493,-4.75149568228062,17.5513930085317,20.2190585092767,15.4975117929444,24.5972373492323,-16.0845915324917,36.9881070608099,29.6036758266018,41.3764282167867
,4,376.404573698187,348.874564759665,365.224349588642,3.23251327028174,8.03391590851697,14.7834759262787,19.8806877582401,22.2823833820967,17.9395025461336,-11.1037280488599,10.0930822154733,3.46659828279735,18.2961432513011,120.423992926858,22.0698002062027,3.79733548471995,10.1440825463023,16.3730966723524,3.32781255984264,19.3743265962494,-4.07325998122178,15.3840332010022,25.0270010812883,16.8428341946856,23.7095918111663,23.0416061879132,18.4080142516113,5.91687280076258,-4.61861502118245,5.27377142878231,6.80032081220088,18.2389770437949,12.8486286228845,14.4741588199231,16.2190950484455,35.1155651777335,24.7267133953101,24.3154776290294,32.4635504878033,2.83401094400506,2.272690619272,15.0872138786308,28.9490982612315,13.0476070199256,12.4542030444518,3.49261702908279,17.3887954055826,-8.35858819799432,18.4707624009152,28.833269280005,16.3782563585137,6.07013791245481,18.3342939470376,11.8104490140759,20.2679979014356,13.5942771837199,15.9125743038876,25.2784017504582,22.2143696555777,29.9091142318321,18.4864263185655,30.8987969137361,21.9219124500014,7.80524361092648,20.9982293801004,12.7855914809152,17.2863123528632,17.7304146679198,13.2852780936764,20.4372718358045,22.5579602893868,23.9469334156456,19.0101943560248,20.8554542040865,29.4482102242418,17.8439327241103,36.1313159969523,26.5903366658167,16.6330720327078,22.751953641502,11.8256719532565,25.9504199956755,25.2770218291262,29.5518812290047,0.407880993796425,7.17129106855373,16.7733535058806,10.7677651595886,18.0103786216123,19.7443948986702,23.2717512805557,22.2338083897021,11.9126007682771,19.1562557389461,26.5508371997421,41.8399257122492
,5,501.390145892874,462.787538308115,488.353056947998,12.7311036523797,6.88999670054818,14.581631778834,11.998913167663,24.7529970125115,26.5576108416262,0.466578613393722,-8.5014557111972,21.7917804307526,-2.096876978615,136.444850016048,-1.84189304464326,12.314144320756,13.7294236280686,14.8431795786637,1.70387451614442,13.3781082258429,24.4638348657463,13.2193915876396,21.1224453405976,24.173868644546,2.92824635804845,4.25095455740029,7.21516944034011,12.7737222127589,21.8698972227921,7.01280897180186,16.7266015084224,14.6760882416174,9.04042042344736,31.1571520433245,19.094764739315,31.7870319652648,19.7139059548981,18.1445420580858,16.4762290537255,24.6474374042737,19.2160958632539,15.2046407733524,34.5275067594594,10.7159895387522,36.6305358028876,16.7681497409312,9.4212065449683,19.3153031956826,18.3596811919197,15.9735539204275,15.3761995804844,32.2273439406126,21.5242717955116,27.8721726352178,60.3488020108271,22.5560267520323,34.0846711788145,14.5071406401403,21.4628526674078,29.2443295529429,14.1816441969704,28.2424716624673,13.3968681636825,15.8426313401869,18.9544014431067,20.8996540354838,26.8065227007464,14.1220231815114,19.0819481546932,22.7076861538899,11.1688809637872,12.2044530706535,18.5869836162528,20.9005610915956,25.7187686779216,17.4820971922964,16.3950103214465,17.2683665215991,25.6851799441065,26.1921066273062,20.7023233910641,16.0730123443682,16.3129679122376,11.8083797397476,3.99468615251499,12.181058076304,7.09866304472689,14.0420600585358,15.4919487745128,9.72589438085834,21.2313128253463,6.50391954976112,27.5130780427953,18.7119418545481,16.8752365017117,35.8428856881164
,6,666.914234511276,619.217829807318,649.957815648446,11.1960298846288,6.83078557402496,8.62934357971062,9.93169830290663,17.0262456820838,3.46679145476719,-0.528205179378347,5.43895709798016,29.4152847343503,-14.956827918938,172.811724707146,-14.117932331731,11.9058279526098,20.0320569247924,9.63811231264845,48.2712508248114,6.32777491407978,4.376568836773,17.253478629088,0.132705145709224,6.51296906345397,-8.6820032987489,-11.0637055298912,-4.6181731912302,20.6554639164742,9.08750106148455,7.07843271497131,6.17732342182899,0.726265555027567,14.6836588239094,23.5320319111979,4.99159911993956,7.20824709349654,4.35463303919641,3.46328498060029,10.8945955857134,15.0987267471628,17.2620599593592,19.7665447310683,19.5478389282816,18.6360552602546,12.6995523443329,13.2312815174819,10.5230509846833,14.2590139263521,11.070989985149,8.34235853543305,10.4894146535889,46.4310701263094,19.3868881131502,28.5034319344904,67.491101005593,33.0216902848788,36.6043096066023,12.0760235105208,1.27079707834309,13.606809852894,6.69276731421087,9.38105958317101,10.2502397763219,17.3908213969444,16.4482580669046,25.8284285229784,28.7887033864326,9.42042736146323,13.9280545271904,-1.21857417311912,1.16423401686916,7.43588248489505,7.69663831474827,13.2252201641213,15.6265156729214,-1.36309040341075,3.82580283997231,-4.45957195748815,4.73781309435799,13.6503882902689,-1.11098054257855,12.4119041871372,3.18223227587441,5.49143236611781,3.726613321267,6.48416475794966,4.7804275245162,9.87075306892166,14.1079065074291,5.83400387803431,5.42993551870495,3.98220281431622,7.66630902373799,2.77506166831699,16.1383719573423,5.50085080635108
,7,1061.36482749329,999.466952150321,1047.96556071463,18.0462493712575,6.40546982345222,17.3393450364811,8.79888744445634,4.571286853944,10.5724759337509,17.3690613846575,-24.1973598889454,15.3225785996365,6.35257811832616,243.69838008642,2.14831672787841,11.4855250720911,18.3775779397283,5.11737950398219,80.8770335303743,20.9133069210993,20.0722736443395,-1.83054470011666,7.57181216650315,8.86821143127236,-8.31291737949869,-17.4252380040343,-14.0776173273498,14.270671539688,18.663151802074,8.2830964018367,9.60438827028156,7.02972725480686,9.22465374088461,19.9085942579968,6.30247099585722,11.6739407292625,9.92573017782797,-10.6977431383548,-6.06441242190067,11.1252765983827,22.1109322455304,26.5473733690324,47.4441398934687,23.8064270319919,16.3217586864012,17.9129790357538,22.9529765688376,7.26672997384048,3.00729132085235,6.81656734097032,6.96981467246133,52.8071573436864,24.5658573442406,38.4097505561931,75.9285625964694,39.5166842967537,51.5403926895033,-0.96533635292144,2.91195630062975,2.33296881371098,9.69400490532826,12.3439990957486,9.71423742612569,23.449305998518,23.534198854406,27.7673025816184,18.9725720042852,9.42152074549176,11.3728683501868,-13.1359598004365,9.07260435299941,-12.6925872346837,8.00685789505496,10.3267036250581,12.8816318313384,-1.45681194308418,0.543952404314041,-5.91552580890857,-2.74881755303431,4.68624264011669,-2.93513896454351,1.46497381903919,4.21840013603378,4.0112701258231,8.96261536165184,7.23386157559889,7.73491076964274,5.69369077228839,-2.92612200766598,9.40574261712209,5.51907734913402,1.05509629748758,4.98245488386965,-5.14761610765527,-0.0040921458567027,3.17264153046017
,8,1676.2164901459,1587.08923452612,1660.05132520119,12.4360868392278,2.44507514280031,7.08664114054955,-2.34777135116747,-1.82259918652653,5.50347940551819,20.1808199739207,-16.7936264576183,1.17686563384996,51.8957282673555,353.597653342474,57.3756688734848,6.8970875058676,11.7382592495896,3.16545284081803,58.4304937088345,3.87454877092568,10.8002620169455,-0.263094054818794,-3.78545610314359,-2.10161723260353,-21.2893170515199,-22.9515093389191,-16.8786423024712,13.2303373027016,11.0748598020009,9.88812277989382,0.504152786772465,-0.731034685986742,1.70879585303101,15.2157017100435,-4.68329455285129,0.443768175638979,-0.99098610783949,-9.78277752055328,-11.6395968678535,18.8345351824555,32.9964110799483,12.7350637475211,36.1100018079724,13.9909197086909,16.288143884296,13.6293078570643,18.386130680371,19.8966089186197,0.277592324087891,-1.19012795254184,4.05596135819906,37.5671360246142,65.0176098793072,34.818275275029,64.6973695117504,41.8576023628266,38.6579438863628,1.88468064011431,-5.07336972524172,3.51865588835426,13.8240100397416,3.99433308847892,4.21924246473372,25.2696004910013,18.251754424562,27.0561578143916,16.8454063882054,3.86778579298061,9.51409503638479,-11.0406815955303,-8.53352748918405,-22.5792914296781,5.57228608420883,4.857196425648,8.59039719094653,0.332740143685442,-6.6742749115474,-5.99179952750455,-4.27505960446433,-7.82136240112231,-5.89573624546756,-10.7186497256989,-0.693390053692383,-2.35853119734929,5.79679847389889,5.56656369486609,3.80552367508881,1.86630799112118,-2.37045106227197,2.24644047460151,7.753220540033,-15.6681160419521,5.73712497600536,-20.4744230264205,-17.0897655486897,0.0497655578656122
,9,2681.48318277605,2543.00145023949,2662.08774540871,8.7370872974434,6.21775009048361,7.00336213730589,-7.37253865766525,5.55530939606524,2.70795414247914,4.91156986672468,-32.3963628822112,4.72934104856722,147.131124454881,538.140620743663,168.835173271032,10.242052687875,17.7669084632862,4.47071592949032,41.5162101324677,7.26568541410415,5.89305107899145,-6.50165004332666,-12.9892969719731,-4.80736451282974,-13.2135960455671,-9.20508294582214,-12.0204526887301,4.03159970187789,5.7300583405131,7.9719005939869,-6.4039079700724,-0.969312203390473,-3.51746120219377,3.43248050867078,-11.1231322676613,-21.943127214432,-8.27822944318814,-21.8032996116517,-24.1116936791223,10.0275922619767,17.024603014369,15.5415949966809,10.8985765608286,3.77232149563861,14.0780254073088,3.57138365458013,-3.71184735892075,6.36452203177578,-2.95314093380966,-7.1897194330586,-2.60533328073416,28.426904552327,49.044084634249,25.8441682863777,51.4790509385894,32.5436233148557,30.2913549763489,-25.1431663113726,-3.08295329436805,0.814966658597768,2.75657479678648,-1.20680673043353,6.97445059433448,8.8085190967613,8.03604934208852,16.7991676800903,4.90349434909513,9.65794023777744,5.26026978794926,-22.805668778763,-31.3948098873807,-16.6783904940967,3.17091535450982,2.61941907123583,-1.87775388497084,-8.86931853261012,-12.7565615932745,-16.64527602409,-7.57031583204298,-4.76687228885748,-8.48746030045004,-14.3277819919294,-7.9562864111731,-9.64577901516896,3.58042299122553,7.98866850797185,-1.87328917355262,4.01883772859583,-5.09912596741833,-18.0960346089923,6.0241830657269,-26.520242480703,5.03018068277743,-17.3401541178682,-18.3912180950119,-25.8206049797082
,10,4248.53843442818,4031.5630552914,4244.74146545853,5.97417998064975,7.54713780190286,-12.8821804383742,-13.3792717056986,-12.645258763845,-22.6823952325085,-9.70009472119455,63.9689273671738,-0.58426715411224,332.987683127505,845.495252092343,364.635831204188,-5.1101283502876,1.79822769603834,1.60948555041159,6.65074547753647,-11.0051858457255,7.41792499365692,-7.35044154336629,-30.0601478190238,-16.6516439706465,6.21866169030181,6.08396850762438,7.81028451809016,-4.12809993884275,-2.15598185165345,-6.36833835572361,5.01233209924067,-13.1493211488987,-12.2095203986692,-3.9849155186057,-18.9797399318813,-28.6845192774872,-16.0358058366919,-25.6938012063856,-29.6460901600012,14.9687218419567,7.78885113678552,6.37249632579551,0.30992478054759,5.87253244634485,4.59787917253743,-4.48117561073195,4.94197143420479,-4.77604302395412,-7.75516081815385,-14.6019286855035,-12.3367346019568,17.5928263585647,29.7870924162853,15.9559385073444,23.0198020037042,18.5439154036922,14.9199096891753,-26.6867201361565,-18.8981450960982,-19.3581995309705,-6.01728346981872,-9.0086934520441,-5.15319312457359,8.07052189094065,24.1272294936043,16.8032990107477,0.13435875974119,-14.7001607675547,-1.55083561376887,-23.7235440877339,-40.6627801257218,-27.8539655569039,-5.67388117899827,-2.24192586626214,-4.76343410983191,-21.0047616882894,-16.5547613176041,-22.3077315315732,-26.5690222866342,-16.8153792932299,-7.20250360185855,-19.6428830469904,-27.62586845651,-17.3064407423008,-0.696581552734642,0.369715103340241,-1.20928512009414,-8.01520901162985,-22.4808479448702,-13.9676468318321,-10.6715948221681,-20.5956251986145,-1.27262417564634,-33.2753724293598,-34.0500053599135,-37.6037776412031
,11,6689.94535135284,6347.74224275628,6754.8778479961,8.03695115266692,-9.99775019498429,-13.7566958181942,-20.1275600660238,-18.0122185996879,-18.8547385721686,-9.60854313344862,37.0267523929233,-3.77452029916458,700.215302351147,1415.44982113394,757.557601344965,5.03071001290391,2.07872064336061,-0.025461181893661,-2.77267360091719,-12.2490026625092,-9.56124915143027,-24.417509352972,-29.0974176211912,-15.4655259261981,57.2192369506674,64.3059220493778,52.3166744365917,-5.85141384099279,-8.81405197980894,-7.1183027633142,-6.03596585568448,-14.9373358386501,-11.5508451387686,-6.80388448042868,-34.9392189342252,-43.5700292684669,-10.3743658460753,-26.6803892571243,-39.100266822722,3.83268130090983,-3.02376416375137,9.54555158347102,-22.0754888792471,3.35610136151081,-10.8527436531513,-0.466989381601707,8.37686207947718,1.58542379808569,-14.4488597658474,-16.4249265176695,-15.0770298629732,9.35627478134847,6.94823860209362,12.7944080528669,14.2919041313162,11.8768008012303,6.19785664550363,-37.5175690277465,-34.7324827154298,-25.1454954662222,-2.60897379492963,-13.027643042642,-3.6632288754372,-2.32353101417721,8.6545569376085,-9.7669469336397,-1.29091399336539,-3.3864875957288,-5.52842071691884,-25.2628987466669,-25.2625201058454,-45.0966496141464,-2.68669252567634,-5.64375867988747,-12.7242122083753,-27.8750825083007,-26.3929025757207,-36.6777703390562,-29.6128126876847,-30.3766063349813,-24.3656534890324,-31.7050579051465,-30.5320710661017,-27.1274042273217,2.65147788242757,3.61049603834908,0.421342986731361,-6.98623073744602,-28.6684797394264,-23.4318306597452,12.7930416030631,-18.2787423557702,-14.3513124395467,-35.0007041048138,-38.5096190064796,-55.7173626491913
,12,9449.47894423693,8947.7947171824,9756.00263828141,-2.94502372850275,4.51245338780973,-9.94132047602125,-18.5764932467164,-20.3702592731552,-17.2582620136136,-19.7494953519108,22.1647292559937,8.42440595017069,1352.64809452602,2364.1023366017,1463.82846471846,12.810517970157,3.96620896278546,-0.645040883886395,-29.1172877162371,-8.43560009020348,-1.81847907564588,-25.4417938667075,-25.5453111844918,-39.8380789788271,153.795767722919,176.568590743709,138.369354510725,-9.67759846938316,-9.65600303636438,0.834627956410259,-15.3481961788984,-20.2372912775254,-15.6815653105978,-11.7866369254371,-43.3919109668914,-42.1466211946736,-21.3422263759012,-13.5105680358711,-24.8499883576296,-1.76763863181077,8.12461880826504,6.48351785000705,6.60459960817025,22.2188060756816,-0.981892478157533,-0.623939533017619,-2.22874151882479,2.22483671448572,-27.5502636047013,-25.731150817237,-18.0692376480911,-8.50517737411428,-9.08696341722498,0.029183633681896,-9.88644479460527,-2.23656253743866,-1.72880594847447,-34.9825470765827,-43.9083089709311,-30.98198420064,-15.399238355084,-12.4084550245061,-2.71474696162113,4.84901855650787,1.93652118125283,-1.11112902585046,4.82479427366798,-9.35083481370293,6.43321811746864,-23.8592151346511,-15.8097592996546,-42.6534519077268,-10.5477652427426,-8.38360553560233,-15.896202286458,-32.7559590798937,-30.7823290194119,-32.2412960412166,-26.6572683452687,-26.7747155146881,-20.6086821913468,-29.3921388850367,-31.5252111127402,-27.5936546435951,-1.85265816654555,0.599914386925775,-3.13015377704505,4.88975986192963,-15.6095318328635,-10.7562138449639,40.925136253858,-17.1524355849551,1.19565358297223,-40.536339706845,-37.7781561606953,-40.7166556771172
,13,12057.5441538868,11399.0007100151,12657.2953226146,-1.80730868618957,0.563575950828636,-8.37052330728056,-28.8267525786878,-28.0339843257534,-31.6724473660843,-11.0752039654853,-6.41243763187595,-36.7929042091673,2271.46660125689,3645.83277899194,2447.9968405013,13.8149007837201,12.2623468681495,-3.43621560395968,-52.1902748273878,-23.7450312085966,-21.3968068897275,-36.2886359451331,-52.0098547948855,-27.0633763517026,302.06448506391,331.562972803532,263.116492784558,-16.2796363773714,-15.0087574731988,3.87477344726176,-29.870508236867,-25.5297474179324,-22.227107929285,-22.8274152157337,-54.5470478708667,-69.0632466034531,-23.6623525131554,14.5429206334456,-20.4231626492274,7.55122998788647,-4.18352356729156,0.186894355501863,8.89438736922057,43.7690282104868,32.8413728125324,0.435289202739114,-12.1418171546829,1.00010394603305,-30.7293273718524,-31.2741570272656,-23.501656117628,-22.6588177587382,-31.8645858921318,-15.5653994393942,-18.676256551711,11.124173654096,-18.1530471421829,-38.7478016191435,-44.6990006826945,-62.6372265881018,-14.9717419237304,-24.8671503027172,-16.1841949233503,13.4655830069642,7.83901678155235,13.3161087956905,16.061252931715,-1.11178703910355,0.292364950986666,4.47858068740061,10.755677033605,-34.4772968796096,-6.61511773399434,-8.10548048931651,-14.0177469404643,-42.9722879475994,-37.6497162018004,-45.5145619135601,-12.624735911988,-35.3595272177172,-28.8408210961552,-29.5765146505282,-34.6362984766956,-22.3333711881969,0.391356898871891,-6.33616872915172,-6.81828037496052,-7.40731175991914,-11.7930485793931,-14.6024142679571,79.814777552554,7.1711825459879,21.173628625118,-28.4944698679847,-45.6017670708388,-67.2315059819066
,14,14112.8397569644,13325.5783158248,15017.2326188069,22.7124066883853,24.2418711168175,11.4398375637293,-2.3101129398683,-29.4632655582309,-26.0126323532031,24.7102366463532,-12.1653404824228,-16.9049020525836,4259.67823970439,6169.64233575116,4591.06840694843,67.2574106556622,44.9722013848814,41.1904833985172,-31.8301629428152,-15.6869230688553,-2.25116841128602,-25.6610642678288,-30.7898091950447,-34.2063886495798,667.033273789865,735.424096890995,578.612509335139,10.2998699761447,-2.06270096334265,25.0888317645677,-14.7469336892518,-23.5881402079222,-20.4528968174191,-21.7175088008698,-44.5602041149177,-47.4936341262546,-26.2264931595073,80.0236125307738,30.813192633017,32.8105239027773,26.2024218413699,19.4768901963034,103.897290722805,114.403756212179,120.804427128613,22.3126048901377,20.1748762406251,9.80529148248752,-27.9386992135096,-28.861538821674,-18.7770900572041,-16.1494993364558,-33.9800306323232,3.70403583234656,-11.1009015318068,11.1369713123713,-10.4666356102625,-46.5909062535029,-44.5218095962955,-54.1897814729782,-21.3752763504053,-24.6628996948775,-11.4615575852276,60.3990480451121,44.5778270660012,43.7126254991854,71.58981578562,8.03234844111648,21.9199412287935,81.3465200910086,83.40863606936,30.7804578765208,-13.5811272137917,-18.3644014638239,-18.2645990470692,-27.2565006048553,-36.3157208893626,-42.0677762345786,8.66878339737741,-26.145443319514,-11.8592323360426,-18.7218095936469,-18.7617794533771,-8.36349695880836,-1.12469674537533,-7.22460180172402,-0.820750653938376,27.1485845266234,10.9588779575342,21.3986407796183,250.677455739922,68.9851587414214,86.2335144979843,-17.1071096486412,-13.0397622627988,-56.1454113497402
,15,15712.6346738704,14814.91430455,16877.0925111437,60.1087213217661,48.1816662796482,39.6740840492912,15.358691239463,-28.3211586010366,-23.6981110909037,58.720095169987,9.54720379494211,-1.84251977502754,6567.43679851196,8853.32489096798,7055.23372070982,128.415133883837,96.7949359774047,107.434457165843,-16.6427933902705,14.9167527268473,30.6632855172184,-25.2396242010527,-22.050988001175,-18.2923812058843,1163.95478701208,1301.57886429754,1026.83943041933,43.7531834764768,5.52105701164874,55.097060998798,-7.90395561011974,-23.419974364042,-27.1385404869534,-5.61880023195044,-25.9140724714307,-50.887878013742,-30.4716963442643,181.8087308544,101.134957211149,59.4995386976516,62.4429030169822,59.8122341469443,234.711746969642,243.06794967022,262.798267132912,59.4564469163133,73.0105787426492,42.599652693305,-30.7933243475482,-25.2719812089699,-26.0952906278899,-4.14838273089299,-9.93690483820137,27.4768624250573,-2.32525813967004,25.7286439273685,7.59950526831199,-52.1016330338789,-48.7842638852053,-61.7156971534168,-26.9286555366216,-32.7260085364196,-19.0136582098639,115.216723808691,117.937511803018,124.957281106008,165.856676409053,39.2091663297115,74.04416037803,203.116569498725,230.262464374853,105.458049243736,-20.8062614304745,-18.3869198934117,-29.2727820721311,-39.3068670857992,-33.5553000594809,-39.797988817465,64.4521330179196,-21.0078348806128,4.78695914110722,14.82373716644,20.2823076278873,13.6216264897621,-6.28182011939498,-6.26775454711878,-4.28623806134783,91.3279006073844,68.4088796923679,57.0027072125959,513.517704537209,154.083298690603,190.211149777973,14.7381075481426,18.1418903682134,-41.8372574555815
,16,16675.3838310289,15722.8816563838,18024.9799383239,166.248287490805,128.930214000939,117.658910045408,51.6068548565872,-5.07935520144474,-7.10111748584677,173.683840309668,89.9877785176341,37.1996652475609,9567.10133283478,11387.9123221881,10211.1272266714,292.428970183832,247.171128302261,248.377139397683,90.8506575511656,55.780075252138,82.6920913708937,14.3804968599416,20.4097985614208,18.9609679261548,2192.23402257816,2447.66406719094,1938.60592192278,131.913086246081,46.929355864977,160.626930437986,11.4541130954403,-11.3858330359753,-20.1883047332085,38.332100705853,26.9562717424069,-5.95929494879056,-15.3585125350837,411.49188896011,246.593495273535,159.61546463145,150.817148040607,145.889348657056,576.386288572792,543.014082065531,581.657065949528,164.063427094206,185.387650000736,125.893406034442,-20.0817871502013,-20.9445125150878,-18.6963757577796,53.3475902034352,48.0297315763328,111.596549906079,113.474326504967,89.7526929253781,78.717779047005,-51.2851179168356,-37.7443547881212,-61.8423859862305,-24.0156063381537,-36.5312205747578,-22.0028115843033,296.950102601588,288.803746468759,285.086923718698,385.983944349815,124.668132222995,163.466655216509,489.383482739378,539.105133374054,294.738108230682,-18.9934973868794,-21.4788244050642,-28.7749268581574,-29.8293960323317,-38.4936958100097,-38.4862973054442,186.74800346261,20.6240048625423,67.0053609781171,102.729917730564,103.750782495271,75.2193290277928,3.1140478149855,-8.2607505517135,1.12819443777516,215.860744045481,182.629173462631,181.338904994221,1043.58799687103,391.919623903988,409.271269070479,100.550837362684,111.350063898686,-11.9872771517239
,17,17333.3969595783,16348.5287108584,18792.648176367,358.297201501008,270.45351541818,286.767942025583,136.6768130169,23.7245750513202,22.085910621141,328.940570752613,200.602395431042,134.968982440962,12089.0807261677,13503.0911480049,12853.0916142427,552.788863070547,503.868660992491,501.89847976407,274.45593254204,144.835923567423,183.243650080375,103.141010537072,113.577106719986,89.1244585241411,3762.15236139261,4198.96399382541,3353.42431078232,280.443595024777,113.730538863913,320.73220703221,52.5721123878757,3.29751072682575,-8.37086323964468,109.33772726656,113.725382016473,44.2957313231673,-4.45711816880976,775.560108028993,493.400512834556,330.01546902088,314.333040957542,305.970790377751,1112.23217436171,1049.15049405207,1130.97031217348,350.530067027181,380.643044963391,275.13002683079,-1.61024452724905,-6.03348304309566,-8.221585705287,164.685412351799,186.461069634999,274.338303311992,316.626295475589,211.221195225171,219.163459292437,-33.417665012139,-35.2693081196594,-45.0537477828639,-32.1500085236275,-37.8023528209951,-27.8739668952776,600.128520301841,603.111307992638,603.786774741857,784.702089312586,272.296350644522,327.809065926993,965.692689973286,1063.03701167561,632.327656839345,-20.6215170154219,-25.9820230950827,-26.3397718052247,-25.9674521257275,-25.4983619232389,-32.8430552375066,405.320109130909,102.126092228191,159.072325442015,245.263078041177,255.691173440231,194.023002615203,-2.75508001620256,-3.34700121216974,-6.04827841143288,448.067000638041,375.976935027973,365.615850339498,1956.19058291915,768.354186011431,821.123734512576,258.230315202858,260.591505011576,45.7711345969601
,18,17776.8066578001,16764.569821506,19296.4358256267,652.602621417357,511.566694461308,510.671078989481,254.748954352961,87.5839519773699,89.3044735847207,579.020738227438,417.672213006468,285.695615883118,14061.7179734268,15031.1340128446,14913.3592660108,982.732999209824,879.264642489754,894.055659217348,550.030547870061,284.450853783185,354.195574384284,210.239085730876,257.90320029812,163.349006881665,5792.10743130212,6465.4360272208,5267.85715431758,524.556792237569,232.648668525025,578.140043695475,142.665595774572,11.0619037655651,14.0259938918352,244.653779641701,230.072752817558,131.573935278937,21.4441284957284,1349.11708870378,879.289202357283,601.959412745415,565.722341985987,634.938644845679,1846.09089031306,1812.09585742286,1944.93568814602,640.755783313735,685.475901004593,515.861780667157,25.2963235875995,25.1160309653023,22.0669257390427,366.370963296542,411.61096172565,530.330645303266,648.526814815286,419.086979526861,444.580337125835,-9.46501571795488,-6.38826478214287,-41.1219864609029,-29.7084248844012,-32.1180885161384,-35.3849334197439,1120.2390281277,1118.5681832372,1100.08314851519,1409.69110557226,497.329525049933,614.045693478573,1711.05430771719,1876.0713244512,1170.27180565545,-19.8089577281798,-28.8683774865012,-34.0481185638128,-10.2136263883276,-8.50902632686302,-14.7657592496162,774.217902167713,248.312176237343,318.062110259296,482.724678549875,508.656139387737,385.478218466699,-5.30393150116288,-6.83411166788483,-6.62358651997783,829.778969127357,706.301054203663,703.573554594162,3222.0483581791,1392.55192125712,1467.63141841144,518.438475017576,539.334512654435,155.74332922041
,19,18061.7366044765,17040.7097670019,19615.3986261692,1357.01993138723,1063.66324116591,1114.75175141923,603.951687188324,239.512658897999,251.008298211745,1184.99739365697,957.566683664847,645.767435871498,15377.0394031452,16020.360287871,16446.7515634509,1979.33692424133,1822.12838718331,1833.47948015779,1308.48141563835,648.625073357467,775.495406236653,550.843722407856,600.193616554956,430.550788142203,8778.89125514179,9780.1819942233,8383.29386410272,1120.41085120722,517.760788473419,1200.99211884617,331.594785881731,76.0942671753055,78.1267981647043,595.273925524492,571.38224690787,408.761821480633,91.4339196376923,2689.33400638152,1744.82450734201,1238.82147927847,1207.79862686086,1227.78966750186,3202.56577345153,3318.93630473386,3568.81573490464,1318.46657482488,1432.16417138301,1088.59731221383,98.6750299404621,104.81834313178,87.1754575910545,857.724617194135,986.459426484927,1173.30127998942,1461.71078242677,940.249698984579,1027.13668766776,60.9754071817806,42.2393761185103,4.10109615196052,-18.9782697622222,-21.7534036813577,-29.6998134122168,2174.75130691423,2241.45437412561,2184.79623210642,2763.21274842032,1058.27085982048,1268.05898779003,3275.10366328502,3539.79337335479,2327.62624344512,-21.2473207151725,-28.6247576449741,-27.634323343269,29.5702951828189,41.7066426911351,45.3819951192836,1596.21078164047,575.033534020533,708.234672127492,1030.93366561357,1070.9821481305,837.690231860198,-2.05325953488864,-12.6845662130081,-10.6148616999653,1663.59539606834,1442.20952700432,1433.49920310347,5338.53966929643,2704.11786964644,2842.69688495247,1104.77334527155,1161.43523655704,404.049871765228
,20,18290.2415532511,17264.2367335303,19866.7673832011,2217.14688827205,1770.48913135479,1827.53205635559,1005.61245089872,442.754697702489,471.199567973946,1753.49276013288,1626.24448404945,1111.58297133653,16303.3513238806,16725.2201676084,17573.8012008805,3143.84784005108,2888.41953165306,2926.86652592532,2122.11073025239,1124.37420564659,1324.49907129437,966.582797013606,1058.77958586822,758.624605527719,11442.655359769,12721.7479210283,11300.0028161038,1859.69808194197,889.402850200243,1975.67223919702,590.590313729226,156.653019259426,161.184454439244,1004.84041655281,979.888589221613,711.597267383873,176.465276601091,4233.8130864016,2834.58005594439,2063.03196006798,2008.00910550833,1987.45828492641,4139.08942715597,4813.00324379419,5074.74903169034,2217.57413722056,2359.25015174762,1800.28297458293,191.358596100977,200.33816526662,172.152523123211,1527.00563297483,1730.68973815497,2014.57165451569,2409.81575448996,1621.11243573726,1786.90150384625,124.531802488178,131.040142148422,55.3015149389867,-3.32239808183112,-24.6526772761408,-23.5553092275022,3500.04543382129,3620.55612656474,3495.94618988821,4317.01663491243,1803.36270031228,2157.38794557142,4936.99036279702,5215.51206194884,3599.29568974306,-16.7915857522321,-26.629484893313,-27.0509303709869,111.133908304762,108.736640466926,122.986490340863,2609.41921301554,1066.35035170021,1221.22677656149,1784.38356887879,1867.08819135731,1449.94341904801,-4.63440389226434,-12.1713071656632,-14.6758590500885,2756.16080159348,2444.04622072597,2413.94934737456,6940.80043990057,4230.30125244874,4470.01779713198,1903.84077171302,1987.17834646672,748.955607899125
,21,18418.5731250965,17406.2821839864,20026.839763309,3805.64463787473,3082.49209698014,3193.8783919086,1883.25333953339,896.018946094273,950.533148653358,2573.03609226959,2862.92383448977,2051.69765677611,16852.0773789923,17153.0388942438,18288.6509043945,5147.26079067165,4798.94725203642,4836.39458595871,3618.61975599836,2067.40826483257,2413.84513688418,1833.37400929302,2002.838330957,1434.08147832682,13532.3371344002,15012.6991118072,13748.6128965838,3276.03065363693,1616.82655357104,3441.83975617185,1151.3221053955,338.749922325011,365.560156175558,1851.29773645133,1799.54088747691,1353.6391186313,351.164046925506,6846.22174577197,4859.27788168618,3559.08302888584,3481.79949828426,3402.25515099608,5069.83172888196,6629.92509438868,6859.7758335527,3851.24057413645,4035.62050731034,3142.74796388997,388.381715254459,399.050993390369,341.013686460595,2800.98975657079,3173.60071652562,3569.6042350112,3988.0541034285,2954.48280280745,3213.17764883417,304.214641985895,298.283435995243,172.896004469801,35.2003842512922,7.3671605189993,-13.6540795805658,5535.44450714219,5790.7046704263,5556.01736822592,6601.08416583042,3259.6388369134,3806.54870505647,7225.90150498592,7323.77706517123,5576.84341144494,-14.5884003443416,-28.5908007820617,-23.408934496395,241.205571242166,238.272332501352,268.351447919868,4256.7900344209,1984.97691988474,2258.12445733642,3213.54465211787,3358.78165696071,2655.68800833447,-4.73074838930006,-9.87745798880314,-12.4999071065358,4679.56197372107,4240.14156381234,4205.39439334965,8312.38744611848,6531.99981287323,6929.8450116951,3341.28385880492,3476.7990331333,1425.60247478947
,22,18553.6501934567,17525.3507306804,20180.9150059786,5903.09150744969,5004.37532160691,5089.73780119688,3305.85608918982,1684.97062847689,1813.99640181061,3311.34799174652,4561.23337361763,3473.2715377663,17274.1052157433,17498.9183567029,18717.4457271084,7691.2533823096,7207.40864304623,7265.83401811954,5439.27645518506,3601.42170354922,4138.84029192027,3257.01367530556,3496.13664949495,2556.46314712227,15167.4492727001,16809.3571661971,15742.4215020393,5365.03924123356,2835.56155150996,5576.90542190189,2107.28630062048,667.137268965981,712.984018008109,3156.20099980718,3010.34148703673,2343.9598306404,642.659250320737,9923.31439572744,7743.77988465312,5605.00369221063,5557.79876098755,5438.28197792365,5764.88732343537,8151.61395350255,8308.58913489701,6144.29805669594,6186.07186332108,5053.14605493643,726.857211057343,748.860019120302,624.356449222687,4755.56378420454,5268.87449127943,5816.61028200979,5797.52389108378,4900.13960726952,5308.91252268844,632.35277721602,610.269454001336,413.179750606681,105.437693294011,46.6867133622991,-3.1086353669707,7765.44547054614,8163.98375656043,7849.35050502233,8583.23816485334,5472.12665831309,6252.00705579404,9280.84268186995,9134.09307377555,7520.6982067555,-12.7190362648116,-19.474382447771,-19.2347094406132,530.066880901442,509.371542254656,555.735449951906,6079.03762408607,3503.98598901861,3896.35658299001,5404.20690647213,5650.36365904403,4540.75786447948,-5.13455934342437,-9.13933545681539,-6.10179934408643,7103.44947590458,6755.03499743276,6705.56055587787,9328.1250319652,8745.82451461896,9337.47575858859,5384.72313656619,5545.75050162717,2551.82096780807
,23,18655.8200403231,17609.7435675999,20290.8255438343,8142.51895416374,7393.67946012234,7289.13844954226,5542.05363156057,3159.11477978133,3378.55426384879,3936.67823888288,6697.65249549359,5490.87631518471,17554.4438188473,17739.8042522627,19002.7675933049,9974.54917216264,9545.15921473678,9658.09105202828,7211.58121977174,5938.8756236392,6632.32968915453,5533.68655494713,5788.45370306308,4467.53097900384,16242.5930154842,18002.8321639054,17088.1621921238,8046.28342771014,4848.71889607809,8274.4693261706,3768.69194033249,1324.93420506664,1405.22860679527,4987.24302480084,4620.1177920893,3775.06202347194,1169.32302931275,12650.571423592,11029.4802214061,7825.38025061357,7808.45706382752,7896.39207249473,6166.74128832039,9171.87933491905,9255.13819689551,8596.74503020933,8233.26089420157,7176.6372313743,1387.16385687666,1422.19792833763,1170.44902087073,7486.57902032279,7866.61713194973,8459.37715478968,7377.18717131859,7498.719938518,7866.61926915946,1268.5729800887,1214.59597011113,884.703707033555,232.805493457824,133.019729761822,37.1910389198465,9662.99150868042,10169.5778179864,9791.60452556198,10092.8641336412,8471.3262453377,9244.31893034427,10782.1503588272,10386.789095789,9085.60946700518,3.97418825377463,-12.7730762022475,2.87515628336496,1044.54429657038,1017.58164434947,1096.30296144436,7488.23197196289,5833.30099003637,6387.17079608083,8300.54746160913,8599.3694994078,7303.35417586524,-6.61644033871471,-11.0537332402118,-14.0833736543646,9405.00697948616,9466.93199059068,9466.5373424922,9860.75868779092,10517.7724723604,11293.1303398635,7649.98869058491,7733.83165094305,4421.82545927894
,24,18729.4414093996,17690.927076129,20373.2715961627,9908.68919843023,9445.06357849522,9099.45176890522,7703.18730328737,5235.91399951912,5590.97974873608,4047.82326252469,8003.50160791625,7154.6217576942,17745.1159080988,17919.322537632,19192.4569868413,11769.2725289803,11387.757477967,11563.6212775585,8580.6211391198,8206.9116474258,8893.75846657963,7948.85884229668,7967.82383648878,6637.63209997992,16927.3575913935,18772.0902513243,17979.1468260869,10438.1075647237,7315.17637699145,10657.9965979832,5806.793956536,2382.00039362763,2538.38664994362,6575.92052415183,6048.50528254274,5113.24099278012,2003.36580209642,14799.030979591,13820.6441779307,9547.99996101678,9533.22063697463,9882.4456114433,6442.47495290634,9784.48186686373,9810.2681387512,10489.225264138,9729.6671095527,8847.96800288657,2449.12983364601,2494.308684798,2064.82307253133,9864.71166699497,10108.1063741141,10703.8796119819,8563.23640497766,9581.85720150686,10051.7030051524,2295.2273946277,2178.1955325591,1635.82433110099,448.234258948967,277.180557626907,114.725728530517,11015.5232568968,11580.6854110041,11165.2736870785,10954.8842778339,11115.323013446,11728.2186503733,11689.6389424288,11112.058064169,10099.8397555685,34.760964247238,10.5738328147372,54.2318120190876,1889.47436268195,1873.82669988225,1993.94663934434,8344.06957502168,8181.75861970985,8821.73486677588,10775.9940865168,11099.6078292282,9738.2996064626,-0.603777875548985,-12.1275225235559,-11.9664116189288,11132.2236711279,11598.1322912152,11637.0451403873,10142.8655689623,11643.5825492567,12568.8668962979,9398.68901156086,9366.75611653702,6726.61691634526
,25,18779.5028637756,17741.4947307679,20428.6532773021,11037.4938852627,10931.353197711,10343.6611532022,9509.27012132948,7829.80535650087,8266.81160817093,4153.52170344757,8902.69778709835,8401.33939804447,17862.012921897,18044.7812480323,19302.1678077671,12885.4592576182,12555.785056008,12802.3413308519,9381.1521418341,10079.9346145305,10713.8064894235,9959.55022009973,9692.34846845058,8494.83044577519,17353.5520478484,19249.0728794475,18526.9579787326,12297.6625020068,9801.26364543613,12496.6185722037,7630.54175956451,4106.15957826246,4361.08637559303,7785.28166520264,6828.68222678394,5942.90383195768,3351.82762284433,16204.4774152431,15859.7037572986,10567.1368955432,10528.3708157049,11145.110774381,6629.35189452125,10131.8163914567,10134.7187147209,11547.2495903137,10465.8192165533,9829.75695873591,4174.36549204933,4261.38922514548,3538.43855167257,11799.896459372,11757.9208786766,12309.9241314627,9231.93701652885,11206.6936858398,11617.4395398532,3858.63180409615,3661.70784235863,2866.90509159906,816.899189090455,534.029962346963,227.406468741074,11784.88893454,12347.3098474139,11924.9337646566,11291.584378362,13050.9632726663,13387.549014208,12121.8099811627,11477.7660986652,10618.0958700515,86.9680221949211,48.1209073915716,130.682388571659,3291.8545313289,3285.16789843359,3496.91854892277,8569.34844288208,10065.0855872402,10737.2281933992,12492.4065070326,12814.046706613,11603.5814591784,-6.12989418471807,-14.049478502795,-7.76932328205748,12055.7137758301,12891.195326783,12938.2206378975,10267.1016367185,12197.013442198,13218.1441006124,10313.9538557612,10149.2343826091,8843.04326346136
,26,18804.9394890039,17783.3765852117,20477.1531376414,11747.649343617,11904.9900778316,11128.4768271565,10800.9458823764,10184.7846634712,10663.6273225148,4264.74270523922,9393.49198607796,9169.95010237321,17936.1133487684,18139.4307111956,19365.92475984,13567.3986471005,13272.7176219768,13589.9533717862,9821.11796776805,11365.0735785361,11909.2848700133,11317.7064849647,10792.3873852578,9875.30220739991,17650.7321968835,19555.9608678526,18895.9347628263,13593.8264226806,11924.793166216,13772.8040709865,9001.59091401054,6432.68860075606,6799.92531538703,8531.48366745866,7386.8323081396,6507.91892356252,5324.94796029411,17113.5940050492,17239.3461103929,11106.7345803043,11009.9551314508,11837.5686787715,6782.28830498564,10389.495778364,10379.4979311378,12011.5081853581,10763.5666740512,10291.626941477,6606.16392499904,6748.91607872653,5712.57488604545,13131.6995341619,12831.9448595862,13341.7834813491,9627.02384772432,12257.6583871892,12598.9930059058,5887.79248186273,5577.78671530656,4554.48751625972,1433.52745509039,953.708261058853,417.429295575074,12234.0881329306,12761.0301942567,12350.9061563434,11410.2341244201,14191.8675041734,14293.0715312133,12408.5658816777,11728.7156801077,10918.4030090653,162.37143212779,114.62831230593,269.976351326966,5256.63734451084,5301.07172275591,5549.80681546337,8557.15032055697,11244.0299668225,11873.0815452661,13435.8759459291,13734.6498802102,12702.0861176054,-8.70461011011957,-14.4046796174043,-14.5582392673796,12542.8076660212,13546.3459952812,13616.9690283545,10406.4624110141,12479.3266444437,13565.8911350164,10630.0089082708,10363.5417631769,10432.20113069
,27,18839.088959842,17787.6876040838,20509.2131791497,12209.0019506247,12513.2167045376,11638.5462080275,11600.6790141947,12043.3509468906,12509.2461187387,4371.42659638776,9677.78989504376,9614.32455795032,17987.6705180621,18217.5017058016,19409.0249858895,14016.0197701282,13724.500236508,14089.8741332379,10073.0906350627,12109.3088725074,12593.6354601896,12064.4509837191,11380.1751593035,10686.1544747701,17858.662644415,19777.5087654739,19141.4961168377,14412.3142404307,13506.2558847297,14582.4057286093,9710.4508302322,9006.24413392558,9405.00942736055,8960.2302227833,7716.79855034197,6817.19959109883,8058.24575384981,17690.2285298446,18124.4797300768,11416.2093283495,11275.3751842512,12230.5262562777,6873.6266809756,10572.9378196339,10548.4367737591,12211.3234458112,10885.3113138775,10495.6741362595,9543.72518376412,9835.06695845137,8756.9727988109,13966.2742521171,13476.358465549,13968.3928342235,9870.91307317757,12867.7345272778,13166.6951050849,7946.74639219281,7566.63281064282,6582.51592329287,2483.72209886837,1691.36246638034,746.678228365003,12546.173804168,13025.1645029327,12622.8101519664,11496.5716637632,14782.9462053862,14733.0344225381,12635.5623302707,11928.6801319706,11151.097000242,300.86626092416,225.413838048762,517.273525829012,7579.67491430328,7750.78421965522,7953.7180323541,8567.80270477978,11821.5425183792,12371.6716396691,13895.0075236248,14165.751404688,13243.276222583,-6.98586738433005,-15.199447368489,-8.95476134804449,12803.6163436275,13889.1973579164,13959.2253722765,10501.1462703078,12682.5882567583,13812.2698317548,10677.4749556556,10354.0216955439,11362.2045467151
,28,18844.9008290371,17805.6345351451,20520.263532267,12533.0377213808,12922.2060600369,11986.27133856,12068.9252900097,13221.2878924462,13670.7430093367,4444.85821719011,9899.84874037013,9938.51215456039,18006.4702523527,18265.9836832301,19433.6077067932,14313.0596280611,14033.1915443153,14437.4245336567,10240.1283102541,12511.5633431935,12961.2286877584,12449.4350434048,11694.2875839699,11102.1320879424,17991.9591005039,19927.4875552524,19316.6704106705,14924.6775632289,14555.6833863195,15085.9286126176,9931.63080442802,11026.0420257522,11404.0529608491,9235.74049355292,7958.30261757873,7008.65722450057,10695.5013727637,18061.7242241569,18710.2665833579,11645.1498728387,11480.268010256,12504.7572526779,6925.69080255476,10674.4463250156,10642.9046471815,12348.0865360338,10997.1454364418,10626.7128816485,12133.8652517228,12565.9491280046,11614.7227547441,14473.7463362284,13867.8032904499,14357.2289074349,10042.6036493744,13228.0427746921,13508.0538189354,9569.97047204319,9142.08658990326,8224.45032998926,4196.02093080328,2940.16767917855,1301.9902576568,12733.5923493022,13180.6724124061,12793.4855861053,11562.125912706,15094.6983761894,14963.3867209437,12801.9200174224,12058.9237258643,11328.2762475659,548.403013713926,431.267966258795,940.915360088986,9493.28687883884,9784.11482503651,9904.59344785676,8640.47305232068,12081.0257292774,12554.441176841,14164.9005206665,14409.8176882386,13529.752120577,-2.05652989219743,-3.46071185583969,1.14545766858373,13001.4414783907,14119.8377586167,14221.2442638042,10570.8130296341,12849.0123271524,13985.3760618513,10741.2450925834,10395.060327324,11807.6537264192
,29,18854.8110183237,17804.9752679155,20517.3917373259,12731.5663491479,13204.2891802874,12226.7390229327,12362.59368057,13885.0878473357,14326.8548815416,4481.68678380487,10071.0897769714,10194.6696404021,18010.9760487203,18314.6418864605,19442.2569790605,14527.0833182343,14228.2688793582,14658.2421025287,10340.8318521858,12767.5876872674,13205.0851286324,12728.6414137654,11930.4648530202,11381.1630969018,18077.6689180902,20031.6454205346,19441.4201306902,15243.490717481,15231.3478704697,15408.2869949601,9962.32794601671,12296.2416050225,12599.0696547153,9451.74507598447,8146.82111850772,7171.08391439639,13085.5529222458,18309.910696925,19087.5686629992,11797.6386726524,11613.0435359356,12673.5714835698,6947.12741307778,10732.2076653647,10681.8877696209,12463.4191758035,11065.5623276872,10732.351160573,14201.2942443857,14760.1192084712,14098.6961544906,14778.0665307757,14097.4581047098,14594.6753956854,10125.4229258228,13433.4059731207,13699.2230082072,10639.5435065053,10188.1740258852,9473.14011914779,6472.46073455945,4699.27470620146,2118.88374978326,12825.2405218612,13250.5526678963,12884.7155146305,11604.2838746722,15309.8816628983,15125.3873980695,12903.8671677373,12153.1637225135,11435.3627761034,921.703559680085,741.29743600498,1590.99915331876,10795.4846069771,11190.7031458992,11193.4664058232,8699.58529165177,12268.7261378806,12691.627853601,14378.6685814324,14625.0502470672,13766.3669876201,1.05531430348583,-1.88203751359924,10.6952022041651,13147.6035789507,14315.3114468409,14404.6241041952,10603.9984002016,12959.6850655512,14098.4493004529,10807.2463171046,10459.6883431628,12058.6015642741
,30,18858.0848531387,17811.5852501732,20520.7742109518,12856.8733157285,13399.7100253119,12374.3043340713,12580.7826994072,14267.8774417868,14716.4778454351,4524.47575203747,10185.0364372574,10394.6144847141,17992.5440547609,18343.0256037087,19434.632746548,14654.9954485637,14363.1141426645,14804.3232492643,10399.0526649721,12958.038058216,13373.4333372583,12945.0773298432,12122.4856382321,11606.5400961938,18131.9917788142,20098.2859956636,19532.6674866227,15454.4881715088,15672.923181743,15622.7642440768,10019.5891956851,12955.2916500525,13173.4505965363,9583.7681909843,8262.18385493647,7285.44298393708,14942.1000821332,18470.4209385419,19347.5975758939,11895.3643781786,11681.2977090187,12771.6179740508,6955.75148564865,10771.786920123,10703.7466552267,12521.1250749868,11099.7060789459,10786.1745074492,15641.3988733084,16300.9500529304,15942.3019934731,14942.0915331648,14218.6091723263,14719.1304119563,10158.8467005647,13547.1866168345,13804.1826254083,11205.7483366632,10766.2571951362,10235.8467845597,9494.29383201971,7267.10583440875,3475.59332674044,12844.6424972944,13262.2094692836,12921.7571522442,11622.5472445815,15437.4000301303,15212.3295008413,12965.5111431029,12209.2623236097,11506.6818157919,1587.40856761272,1285.26660351903,2723.54889595105,11471.1729062151,11885.1980718185,11796.6982551339,8729.5910964576,12381.6862276476,12798.3177846739,14539.2585971801,14797.24651779,13953.315848014,12.2535048575701,15.6091543561588,22.1801551059725,13228.9599700266,14432.2385127334,14537.0578556958,10617.4334745188,13028.7913274391,14176.5028060735,10861.7874508308,10508.0549613725,12251.9683806072
,31,18868.131881038,17825.4928771573,20520.4353045958,12958.7697299545,13555.9366481844,12491.6491282589,12752.5329829286,14576.9474369801,15028.6698111704,4575.82687664936,10282.7407018112,10542.7069007697,17994.0604180876,18382.4167415584,19425.6861900017,14768.7959322433,14469.3611363497,14932.4487211371,10468.3204728131,13125.440570543,13529.8050473139,13137.2571318891,12318.7629596811,11818.8867478515,18190.1912686241,20154.9990301722,19607.9521851986,15614.2605776447,16017.7594634448,15784.2967204729,10158.5830641386,13382.0340267719,13529.1144319063,9706.78781793397,8371.45887932311,7392.40200589299,16330.1191543073,18606.1680577061,19541.0223288427,11976.2547709844,11740.240594831,12861.179704583,6976.30325140847,10822.7150292491,10735.1704020265,12602.1770864427,11143.2697246996,10863.3416020084,16651.2637530888,17382.5009728009,17265.5099381363,15038.0499701479,14290.0585195545,14797.7966426309,10173.9654664717,13620.6224805664,13862.4537569863,11566.4708710078,11133.9235648219,10724.3417283962,12348.5004195064,10226.7430869212,5559.42095480984,12885.3336069787,13264.3983785047,12931.4151623297,11641.9815996692,15547.0110528709,15300.4971822841,13031.8355985183,12267.9210060854,11565.6326567206,2737.22588011747,2247.49568156625,4584.30010367962,11848.8399653728,12239.4093512795,12092.7511110907,8779.06621491961,12484.3163310709,12898.9830022941,14693.1334942462,14950.3968878928,14118.1305396023,30.5300824063179,25.2403096177368,50.2489885049354,13331.827581819,14539.4495586684,14630.4614109894,10649.1163553252,13075.7929942036,14251.468577391,10933.0966173028,10570.2530472299,12416.2845101488
,32,18870.5391231852,17828.3841498426,20531.5922603325,13033.7111743938,13641.1101342073,12570.5470455371,12867.8974224512,14802.0615990092,15225.5223526077,4625.81882840307,10345.4666417839,10660.1821350593,17988.7795630386,18414.536264565,19406.1154424317,14844.3169981868,14553.7129699892,15024.3579640532,10510.9038619528,13253.6406446265,13642.142260157,13288.1970086908,12465.6030634632,11971.552058599,18222.6122737533,20196.971488672,19661.6364215408,15711.616811676,16252.9224513734,15882.0312845446,10278.3528065055,13704.7988375157,13806.3373381245,9787.4654527132,8447.13526816884,7463.30763328152,17277.9707058884,18694.6990021656,19684.7164872472,12031.5308648545,11777.2349571181,12919.8655476856,6976.69024219413,10865.1579327881,10755.7451983308,12652.0489620054,11184.3126957992,10894.0712701277,17327.0873381215,18098.9797705595,18143.3938056325,15075.7407910641,14301.6042399823,14824.0431438289,10182.6587400053,13654.0208333587,13883.0744309892,11801.6407680512,11373.0573127961,11014.7894073536,14717.41402212,12803.1832923791,8474.0054078986,12886.2115472664,13252.4606977605,12916.5225890059,11660.5826623965,15599.8645200658,15332.0111385262,13082.250905932,12309.5392284916,11619.1066029703,4601.12074683748,3857.2760370687,7327.91791278076,12088.276254653,12415.480597971,12252.6155848275,8829.98747449944,12535.170731939,12958.4823426983,14804.6641308663,15052.1335991187,14227.4655905411,59.6838823418129,55.3328312117301,111.18522987222,13391.6818391944,14610.2143150882,14695.0884889876,10650.4586691774,13116.0612376744,14298.419097073,10994.0690552016,10618.8193311666,12537.6131816269
,33,18869.6864700981,17843.9608058141,20530.8155245719,13083.7519129624,13704.8032653548,12633.457459679,12933.4282376319,14942.8278136986,15342.1961820372,4647.17164076591,10396.5618377831,10722.2614082123,17982.194289222,18429.2663636387,19395.9657777028,14900.9654109074,14601.63494921,15093.6410478694,10529.157436774,13331.8667575083,13720.10293924,13399.6539510678,12572.5946257669,12096.8280563144,18258.607658383,20234.819867309,19699.6479149513,15774.2242594398,16408.0820568341,15941.5652513385,10374.0919515571,13926.997654723,14000.2255125447,9844.32012512926,8524.32512119648,7517.80801191138,17922.5969994889,18767.6967105762,19789.1110730457,12052.536432166,11802.7080226411,12945.951923995,6971.21327338676,10883.8077346205,10765.6803313705,12684.4840751213,11206.4039824333,10930.0353136356,17789.3087948612,18571.603882014,18721.7731847625,15075.8796957706,14278.8509528314,14811.8572791231,10156.5735835362,13648.0823915967,13885.1926162651,11959.7843143821,11531.0219510174,11193.3773557886,16425.1992434913,14793.9785889529,11319.3292880829,12866.0813599481,13218.7491477842,12888.7486452646,11661.7587758693,15619.5580222066,15357.5839805739,13117.2905912996,12341.5267782646,11664.9487838787,7062.63834114747,6112.02616072382,10276.8512392843,12268.1146999991,12575.9172078595,12398.1499605869,8876.69903495328,12564.6810241792,12986.0322711118,14882.7370264559,15118.777413735,14298.0836207769,116.362966855066,116.601579200375,195.770330884989,13420.5641663693,14670.6392199984,14751.6720732619,10662.6522728147,13148.3324401124,14319.8230052836,11035.0362495056,10666.6672822016,12602.7270227136
,34,18872.6984933894,17842.3207456719,20532.9268940053,13119.5509453246,13729.4395149498,12665.6800570358,12984.2710225629,15007.7968210523,15389.2528587539,4668.54879949552,10436.9847975012,10785.7069899455,17955.8279465881,18445.4282681025,19360.4348732608,14932.5462136168,14640.3990242606,15123.5175664763,10529.7587925395,13377.7944232704,13763.7161326253,13491.2488611033,12648.6662734934,12169.895388556,18286.4642723919,20251.5831942422,19722.2593689696,15806.4812769606,16492.9414192177,15976.0178061432,10435.3799422279,14059.3097807454,14111.2496847375,9870.51179923876,8557.63674974282,7549.53911618299,18359.1320378422,18811.588774866,19856.5791326338,12063.4335734376,11817.2801193644,12936.9353897338,6948.98693195081,10873.7862866114,10756.7558533118,12682.7928258167,11212.1023473449,10932.2214468668,18103.5996463574,18887.602325402,19103.9103034628,15043.6461312136,14217.9240707591,14768.8893255907,10118.7030650824,13613.3042975326,13849.6985434393,12057.9797247632,11627.4115160797,11299.3431528053,17529.9529073308,16129.19105423,13858.6925497479,12809.4377184574,13174.8647397305,12857.3512615748,11649.4358542703,15612.2414885758,15346.0109235195,13123.8502033517,12355.2468804024,11684.2765588416,9833.92969355523,9000.81399689472,12905.6830468956,12397.2357045488,12674.2633725216,12502.204406922,8897.15946910084,12563.3296638921,12998.9570994576,14913.6224774123,15152.7171335631,14331.8188978449,212.3773509666,222.795698611024,364.844373094952,13429.1479602279,14704.9684739353,14782.7963793328,10643.29291819,13157.7879524802,14333.5730332576,11049.980877918,10682.7756155533,12635.141743824
,35,18881.7427808129,17841.7738204338,20528.3490076871,13152.4063501513,13763.9249105667,12691.9362765645,13014.1288013406,15033.0061982001,15436.122243271,4678.35140739879,10476.6542840085,10825.4029058524,17927.7229223166,18458.9072195139,19339.0578495571,14951.6877205608,14668.4620291704,15149.8095875819,10537.514136424,13417.6193635045,13791.578936615,13549.0619454352,12706.5929338833,12256.4374613128,18304.524106103,20260.5804652342,19751.3998756826,15827.5482796842,16559.0751697675,16006.6870367241,10503.6206036771,14156.2660298471,14205.5416089921,9891.58810123683,8580.39470219796,7583.03981489022,18679.5280204896,18845.1905799313,19911.158534236,12059.6756353227,11827.3497594851,12939.1061329427,6939.10978360716,10858.4841927371,10744.3926086747,12691.6484376719,11207.392480825,10946.469728812,18313.4240908245,19118.6880230144,19385.4817964293,14997.4916051525,14158.1140879969,14711.5133735374,10069.4367833817,13578.2036350443,13818.9843319336,12130.3877144653,11685.5895910936,11384.7899069436,18278.6749869493,17002.473004773,15849.3290257824,12778.4986028913,13115.622892426,12824.4043353254,11628.419634638,15598.5068392317,15338.6311176696,13132.0191669641,12354.6619932565,11706.3006202729,12244.8181280738,11678.5112601223,14980.726701643,12494.8991357523,12762.4429451294,12602.0816974297,8915.0165004727,12565.9551370298,13006.6846220695,14936.949491525,15181.6731921576,14367.6463014612,377.706096552549,406.787355923765,650.46566380483,13427.1488187359,14714.6744356127,14809.5784905839,10647.6667693296,13170.3919036409,14332.8296698551,11067.8043257803,10709.9834374081,12652.3983753126
,36,18872.36524218,17833.3603426349,20536.8647722625,13167.8853350853,13781.9935477302,12704.0508651048,13039.1576415001,15037.349675931,15460.0502739354,4699.53798137778,10479.6329187364,10855.1603616739,17895.9145895862,18476.7769265697,19299.3245887454,14970.7517367049,14688.9654669633,15162.8166919594,10538.9024177344,13456.2367608516,13824.0525395503,13605.9242855453,12751.2630768623,12297.7181774911,18308.3256096585,20256.7771783124,19767.1957201469,15831.4823098756,16604.4883671922,16017.8772290349,10555.1604954203,14227.0746708573,14273.942435776,9904.53394329167,8583.88594021819,7592.58477102702,18913.037953147,18865.0268429987,19946.3561029926,12060.0561220023,11829.3157983145,12933.8440403341,6911.28656767866,10837.4145797864,10711.8365861374,12693.4333278284,11199.9365479194,10946.7556542096,18450.2190061153,19286.2301456032,19586.5590123423,14938.9240713318,14098.0675076162,14647.0907746735,10013.5290279681,13527.1177564828,13746.7771031649,12188.7507299968,11726.1524771357,11434.832455349,18771.0506370549,17572.4046934993,17251.2319187449,12737.4425710189,13063.9487011038,12775.3107524763,11593.5718420896,15584.6125307538,15304.2402865023,13129.0160304893,12343.2076762989,11708.726760745,14100.1001040068,13890.2809625549,16390.0297617408,12556.6908106848,12805.9286173532,12672.8896623432,8925.24787423404,12559.8952900041,13018.7756391826,14950.5338541086,15197.7565690653,14388.2023124742,659.729059379262,734.874124076671,1149.43853730957,13459.0922909612,14715.8254855692,14797.0638883246,10622.4143005432,13164.8699483648,14333.4019088627,11080.8595037862,10723.2239715911,12659.3144075203
,37,18882.0148280437,17824.6920511515,20531.5445681598,13172.2338961572,13801.013469428,12700.9659396824,13043.3484584083,15051.7288122301,15460.9384745498,4711.25960844301,10486.9812487964,10882.1927902485,17861.9280189241,18487.9750660518,19268.4038420459,14989.2114553785,14696.1728373348,15166.1996152345,10524.0579045903,13486.9788618373,13836.9205455692,13633.8097017206,12790.448802304,12353.8501384764,18295.6361528343,20251.0190405774,19772.4969246568,15819.0158409419,16634.8587798334,16018.2834841953,10601.5099409128,14273.4302370985,14320.0766365214,9904.62894690497,8593.26682129638,7595.09176334569,19102.4921820719,18870.2158111014,19966.3580754828,12040.703686958,11811.3475274155,12923.2859311885,6879.30076244488,10819.0487204617,10673.5936872585,12699.037839497,11194.4801175805,10944.2768019904,18540.3486596852,19407.8387255337,19740.4847438581,14869.0618786217,14031.8070610341,14577.7772104729,9939.44938691244,13470.0151803924,13690.167733926,12228.9760427568,11744.5027938038,11467.4562563497,19117.6929764253,17949.1162449795,18204.5902597704,12697.0018589812,13001.405509516,12717.3706648217,11569.1157605895,15573.0055940665,15274.5086253938,13121.3569719512,12342.8004856491,11715.3894149745,15373.8381742711,15473.2737089498,17309.3876735455,12583.7813985116,12843.6903982871,12706.4491218423,8943.22273285945,12536.7973485728,13003.8411051109,14950.5461956493,15205.4279951083,14399.9351308559,1151.71102312804,1285.52704025017,1992.83668221512,13465.0524002852,14708.3528193049,14779.3245743015,10602.8437661884,13164.5355502634,14315.6940283109,11095.6882699273,10731.6786530735,12673.6127732978
,38,18864.4005110603,17834.7824226333,20525.3128623481,13154.7537544781,13805.1938793902,12697.2678156689,13049.1569229221,15057.7509796837,15457.515444549,4725.92501360647,10491.9615321059,10893.4412311656,17830.421994898,18660.2805729189,19226.8555711061,14988.7692224899,14700.3779983909,15164.2532347227,10489.1491670071,13495.9957353517,13861.460645759,13677.774033842,12829.8822540088,12367.901222205,18286.0298462785,20247.9932404931,19759.0609635825,15812.3563557179,16639.7057375241,16016.9008622687,10640.74860003,14320.1438312882,14349.0472179104,9901.55448801185,8597.45681659225,7587.86101163848,19239.2870875108,18875.5376631183,19969.923160984,12024.0344835633,11788.2148379962,12897.1755766596,6841.1847010204,10786.2506302698,10634.4410311201,12683.4441732383,11184.9504044968,10940.1963766115,18619.694075238,19497.0415831578,19846.5149232904,14804.4108145868,13958.3059179643,14511.2714471368,9861.23910520031,13403.3559738288,13610.7476877088,12262.0620461449,11756.1221681028,11489.0882861266,19356.1692526245,18215.6534466308,18853.7982426261,12649.691011216,12943.5342362234,12661.025611343,11539.1654782556,15554.265005417,15233.584998768,13116.5024768475,12336.9109189166,11707.3276698617,16219.3143399853,16518.9407977054,17914.0011602018,12604.4204581215,12858.1392407993,12719.3662924127,8945.31381949962,12510.7310511988,12988.7129366563,14955.4339374779,15211.033743608,14401.5298798078,1978.36737573865,2218.73823903784,3389.97207778681,13464.7598551381,14716.7672314551,14770.4991029866,10558.6100882448,13147.3588144033,14308.4763256987,11101.4481970627,10728.4378340251,12678.630251065
,39,18870.6749625014,17836.2550910832,20510.1384484553,13150.1851605065,13784.8241687076,12679.9435028281,13054.9263226011,15057.1504863407,15449.2590065966,4730.59808207222,10495.3385801209,10922.5833546421,17791.6849351209,18823.8859003185,19185.8225613757,14977.7191265358,14691.5802038334,15157.0364733328,10449.3186851819,13492.9428167265,13853.5625260364,13696.4371916956,12861.7035001106,12396.1512147618,18284.3400598915,20231.9150874481,19749.0671120961,15803.078521205,16631.8942123757,16011.0876898557,10667.6179928796,14349.1186115961,14360.8212282223,9889.26179590824,8590.04434767304,7597.03554543261,19334.3279233335,18873.7007581745,19985.8232731768,12004.615410842,11757.8250080776,12860.1683552252,6798.48802704486,10758.700567199,10601.4203015618,12662.6596677454,11176.2068389311,10934.7304690695,18676.3418794262,19566.669919374,19922.3170731241,14737.0098909967,13886.7812297644,14443.1742771186,9784.6327241718,13345.9304484545,13544.6473457767,12281.6218440711,11770.3066515231,11513.7867026448,19535.7926007179,18405.7460346487,19302.5977589585,12612.7077701906,12880.8466845764,12604.8964531343,11520.1748347879,15522.9656153096,15206.2738575013,13110.979309755,12330.6507776329,11695.9447167086,16765.2486811146,17204.885960077,18318.9682922193,12615.4604841419,12864.9296562427,12728.2212558377,8948.01129912466,12484.148236127,12969.0121344979,14946.7046626383,15200.513918585,14391.5436014252,3376.21878493031,3759.2003488189,5575.77122407704,13434.9250267375,14713.3038936368,14758.7221675527,10528.4742813662,13137.3454664173,14289.7760349352,11109.135208027,10719.7471056872,12678.516058889
,40,18873.5613600789,17831.6821200505,20511.0923069443,13144.4343496071,13753.6462648019,12666.6839048392,13075.3461009649,15041.560855091,15445.6341584191,4730.5941422739,10473.5908105323,10955.597036672,17748.6396932377,18976.4389317578,19139.6753255448,14964.0862009247,14673.9699336183,15145.6506996836,10416.4107763918,13487.3948762051,13845.7418999619,13719.0346532974,12884.7789571345,12417.0971070989,18295.7913672273,20214.445939737,19750.4955425563,15800.7583979352,16619.3012569554,15994.4569176335,10676.7409756437,14367.8920078866,14373.3312519997,9874.2463310911,8580.40681373831,7599.50306064826,19381.5979978773,18868.2720656711,20019.2361522068,12000.3651279439,11724.2599813802,12820.9059855303,6747.08570062166,10738.69282464,10575.3411558682,12634.6087307294,11160.6310471176,10933.1021785399,18721.6198526904,19628.7268725294,19980.4204566016,14671.9640258728,13827.0625713157,14369.1938602582,9711.81271391298,13292.4461690646,13473.5807235334,12294.7736595965,11793.256327227,11541.4070029572,19666.4747731731,18566.5526539135,19647.4998232476,12571.0756084082,12832.3930278983,12552.6178628351,11501.7968945256,15483.4075786387,15176.0338070122,13110.1707563702,12307.1133718946,11676.5891535428,17161.4039680406,17710.1146088537,18607.6932284763,12620.8122647345,12853.3880682064,12749.1633677955,8947.446241869,12462.9439823841,12964.9326507522,14938.4955115263,15177.5941336104,14370.7594952336,5487.77770740965,5944.76906109423,8410.21766521878,13404.5676698749,14702.3090360344,14738.0303755744,10494.3941162138,13122.5521388992,14275.7533290043,11121.9737926497,10718.2568207797,12665.2197484562
