,Temperature,A1,A2,A3,A4,A5,A6,A7,A8,A9,A10,A11,A12,B1,B2,B3,B4,B5,B6,B7,B8,B9,B10,B11,B12,C1,C2,C3,C4,C5,C6,C7,C8,C9,C10,C11,C12,D1,D2,D3,D4,D5,D6,D7,D8,D9,D10,D11,D12,E1,E2,E3,E4,E5,E6,E7,E8,E9,E10,E11,E12,F1,F2,F3,F4,F5,F6,F7,F8,F9,F10,F11,F12,G1,G2,G3,G4,G5,G6,G7,G8,G9,G10,G11,G12,H1,H2,H3,H4,H5,H6,H7,H8,H9,H10,H11,H12
,65,54.2526863634057,87.0066224481493,82.3202707321843,-28.3740385483129,24.5447332019216,28.4383500891145,39.0082899116201,12.220456135462,5.69652641646144,-42.858564464615,-19.5509702971153,-26.0426760714349,72.5894148080602,77.9609378652372,90.0867409693792,23.6640496108439,8.51953400672073,8.7953111443785,11.0013566789007,-4.79406417539167,-13.0706865008874,-26.7207850218151,-32.8829385840431,-39.0220384858512,70.2846444106399,101.280246073369,93.1046033990947,29.5042883242054,45.7029429402669,55.1608173756827,-22.6539291242857,-30.2284599284021,-35.7342730246023,-16.839381905821,-15.373624717889,-13.7632190392374,65.613635350292,94.7860710713117,94.192650228576,-23.2885864285331,-54.8023823707481,-46.0906152566085,6.26536550560468,-24.6410519687579,-32.7021216874291,-46.2022714616937,-41.1426884851735,-84.5906548342155,90.3267629098723,114.207686445623,84.2493673891531,19.9405410066411,31.5335421204691,27.96129400982,37.4022081237404,9.72791949978728,21.6368299181186,71.9060768365184,36.9970801057007,38.2668176733796,80.0780485900968,107.460279346179,94.6183609234049,1.78932704224235,4.14375173431927,8.79049333863031,43.1413271797733,-14.766653905755,-8.0761590576567,25.9843610977805,-0.711992561144143,-13.0150153401041,43.582602926781,103.820456918193,118.969899617269,-10.113384403357,-12.0732538047541,21.4913239042548,12.166743624723,-29.514262021054,-17.4716211195023,9.47462807726379,-9.08177724785264,-38.4503746035039,85.3592455721569,133.529490314863,141.529769620725,-0.313828760308297,21.7249852564764,0.292135528420204,35.7602401022177,25.7288876564016,14.2173441187347,-18.1387925934823,-52.3671591504544,-49.7885879670803
,65.5,117.547487120717,188.514348637654,178.360586586398,-61.4770835213399,53.1802552708282,61.6164251930845,84.5179614751705,26.4776549601634,12.3424739023326,-92.8602230066654,-42.3604356437472,-56.4257981547757,157.277065417467,168.915365374682,195.187938766988,51.272107490156,18.4589903478955,19.0565074794868,23.8362728042812,-10.3871390466825,-28.3198207519222,-57.8950342139296,-71.2463669320955,-84.5477500526777,152.283396223055,219.440533158966,201.726640698038,63.9259580357789,99.0230430372408,119.515104313978,-49.0835131026174,-65.4949965115447,-77.4242582199686,-36.4853274626144,-33.3095202220934,-29.8203079183518,142.162876592301,205.369820654512,204.084075495247,-50.4586039284832,-118.738495136623,-99.8629997226476,13.5749585954836,-53.3889459323077,-70.8545969894276,-100.10492150034,-89.1424917178738,-183.279752140803,195.707986304724,247.449987298846,182.540296009835,43.2045055143922,68.3226745943507,60.5828036879439,81.0381176014375,21.0771589162036,46.8797981559246,155.796499812457,80.1603402290202,82.9114382923271,173.502438611871,232.830605250059,205.00644866738,3.87687525819229,8.97812875769068,19.0460689003662,93.4728755561791,-31.994416795802,-17.4983446249271,56.2994490451911,-1.54265054914458,-28.1991999035595,94.4289730080254,224.944323322755,257.768115837416,-21.9123328739429,-26.1587165769683,46.564535125885,26.3612778535635,-63.9475677122864,-37.8551790922602,20.528360834071,-19.6771840370125,-83.3091449742615,184.94503207301,289.313895682198,306.64783417824,-0.679962314005024,47.070801389028,0.632960311575516,77.4805202214739,55.7459232555348,30.8042455905902,-39.3007172858784,-113.462178159323,-107.875273928673
,66,108.505372726819,174.013244896295,164.640541464368,-56.7480770966213,49.0894664038451,56.8767001782353,78.0165798232306,24.4409122709162,11.3930528329224,-85.7171289292332,-39.1019405942243,-52.0853521428735,145.178829616127,155.921875730476,180.173481938755,47.3280992216824,17.0390680134456,17.590622288757,22.0027133577942,-9.58812835078379,-26.1413730017744,-53.4415700436275,-65.7658771680844,-78.0440769717025,140.569288821282,202.560492146741,186.209206798185,59.0085766484112,91.4058858805265,110.321634751368,-45.30785824857,-60.4569198568138,-71.4685460492019,-33.6787638116475,-30.7472494357785,-27.526438078482,131.227270700582,189.57214214263,188.385300457151,-46.5771728570612,-109.604764741498,-92.1812305132098,12.5307310112189,-49.2821039375112,-65.4042433748564,-92.4045429233902,-82.2853769703452,-169.181309668437,180.653525819748,228.415372891239,168.498734778313,39.881082013289,63.0670842409359,55.9225880196373,74.8044162474844,19.4558389995686,43.273659836238,143.81215367304,73.9941602114031,76.5336353467669,160.156097180185,214.920558692366,189.236721846816,3.57865408448515,8.28750346863762,17.5809866772611,86.2826543595534,-29.5333078115063,-16.1523181153175,51.968722195561,-1.42398512229101,-26.0300306802083,87.1652058535619,207.640913836389,237.939799234541,-20.2267688067168,-24.1465076095124,42.9826478085092,24.3334872494429,-59.0285240421172,-34.9432422390096,18.9492561545271,-18.1635544957039,-76.9007492070109,170.718491144321,267.058980629721,283.059539241456,-0.62765752062387,43.4499705129488,0.584271056835405,71.5204802044368,51.457775312801,28.434688237468,-36.2775851869683,-104.734318300914,-99.5771759341596
,66.5,108.50537272678,174.013244896322,164.640541464398,-56.7480770966076,49.0894664038415,56.8767001782503,78.0165798232852,24.4409122708689,11.3930528329042,-85.7171289292196,-39.1019405942056,-52.0853521428403,145.178829616083,155.92187573052,180.173481938782,47.3280992216701,17.0390680134237,17.5906222887488,22.002713357781,-9.58812835080198,-26.1413730017357,-53.4415700436721,-65.7658771680653,-78.0440769716915,140.569288821248,202.560492146751,186.209206798217,59.0085766484126,91.4058858805411,110.321634751375,-45.3078582485459,-60.4569198567542,-71.4685460492115,-33.6787638116971,-30.7472494357362,-27.5264380785075,131.227270700507,189.572142142614,188.385300457173,-46.5771728570808,-109.604764741505,-92.1812305132416,12.5307310112294,-49.2821039375576,-65.4042433748568,-92.4045429233438,-82.2853769703652,-169.181309668468,180.653525819752,228.415372891265,168.498734778325,39.8810820133008,63.067084240954,55.9225880196832,74.8044162474976,19.4558389995532,43.2736598362399,143.812153673026,73.9941602114222,76.5336353467119,160.156097180201,214.920558692408,189.236721846833,3.57865408443377,8.28750346858442,17.5809866772524,86.2826543595706,-29.5333078114936,-16.1523181153598,51.9687221955637,-1.42398512231875,-26.0300306802228,87.1652058535233,207.640913836388,237.939799234553,-20.2267688066963,-24.146507609456,42.9826478085743,24.3334872494697,-59.0285240421181,-34.9432422390523,18.9492561545121,-18.1635544956525,-76.9007492070082,170.718491144319,267.058980629698,283.059539241443,-0.62765752064206,43.4499705129592,0.584271056858142,71.5204802044709,51.4577753127701,28.4346882374475,-36.2775851870342,-104.734318300909,-99.5771759341678
,67,108.505372727068,174.013244896154,164.640541464154,-56.7480770967304,49.0894664038624,56.8767001781021,78.0165798228945,24.440912271285,11.3930528330498,-85.7171289293174,-39.1019405944089,-52.0853521430977,145.178829616395,155.921875730164,180.173481938572,47.3280992217692,17.0390680136029,17.5906222888143,22.0027133579242,-9.58812835066919,-26.1413730020358,-53.4415700433451,-65.7658771682354,-78.0440769717661,140.569288821475,202.560492146659,186.209206797961,59.008576648398,91.4058858804492,110.321634751322,-45.307858248726,-60.4569198572062,-71.4685460491773,-33.6787638112723,-30.7472494360745,-27.526438078266,131.227270701107,189.572142142707,188.385300456985,-46.5771728569539,-109.604764741408,-92.1812305130084,12.5307310111243,-49.2821039371852,-65.4042433748496,-92.4045429236849,-82.2853769701887,-169.18130966819,180.653525819715,228.415372891089,168.498734778205,39.8810820131816,63.0670842408163,55.9225880193235,74.8044162473971,19.4558389997305,43.2736598362253,143.812153673134,73.9941602112822,76.5336353471307,160.156097180107,214.920558692032,189.236721846661,3.57865408484486,8.28750346899733,17.5809866773179,86.282654359411,-29.5333078115905,-16.152318115001,51.9687221955287,-1.42398512208911,-26.0300306801064,87.1652058538234,207.640913836362,237.939799234447,-20.2267688068555,-24.1465076098993,42.9826478080449,24.333487249301,-59.0285240421063,-34.9432422386935,18.9492561546231,-18.1635544960509,-76.9007492069841,170.718491144303,267.058980629899,283.059539241488,-0.62765752047153,43.4499705129087,0.584271056713987,71.5204802042144,51.4577753130507,28.4346882376112,-36.2775851865117,-104.734318300945,-99.5771759340987
,67.5,108.775714808502,175.215626736772,165.20952237947,-58.621052946381,48.9336560936072,56.2577833878308,77.1120318286089,23.7984102187975,10.6182014743385,-85.0163406403826,-40.803770532249,-53.7730557544355,146.355098810946,157.210566182986,181.125942879225,46.8997308952044,16.5307744948736,17.6624956569008,19.9526558808343,-10.6182215226127,-27.5265398770648,-55.0852912580326,-67.0041926968279,-79.7627517718815,141.210508229473,203.963705332598,187.758673625261,59.490734839208,91.3177618300883,110.472901166753,-48.6237490652084,-61.6318489933874,-73.5684929820909,-35.2231561774047,-31.3444649407484,-28.3283826976244,133.165393087901,188.988775177359,189.287833512782,-46.6762550818939,-111.561483272423,-92.7258527180029,10.8550944093049,-50.2044701551922,-66.1096584063612,-93.5178190952793,-83.0059429160888,-167.582982594762,182.34524167901,229.716456661157,169.187081969185,40.4378808620768,63.2675563631037,56.7960496067817,74.3877741612318,19.901595755709,44.1200824466796,143.549158193258,74.2058484426057,75.9089506952691,162.043219721506,215.798876447159,190.802501118472,3.76239927043071,8.32748359923517,17.8493726078118,85.0337889009011,-29.8520508615902,-16.3084189029778,51.64522876714,-1.6212672223387,-26.7481618108804,88.9382455670807,207.998937344991,238.699998783047,-21.3944029394756,-25.7641631401189,41.9462753781236,22.7015784237087,-59.6448932559397,-35.8341242887323,18.5579714238374,-18.3147153080963,-77.8620434791897,164.532190565972,260.426559975236,278.684699666649,-1.0630398054418,43.0199604056247,0.4567180642116,70.1763770212388,51.6965867783001,27.9722868851509,-37.0062469716618,-105.534255897959,-100.8708103972
,68,106.695140960834,169.325366192868,161.550293181947,-46.8974413331694,50.2856350198808,60.5645090615831,82.9579640022866,28.114164453074,15.6124265607364,-87.9213096962981,-29.4571665237854,-43.5534060289706,138.704234028272,148.875650638073,174.925463564735,49.3968120086902,19.2529994916586,17.099661090665,33.411395932093,-3.63958250115866,-19.2627185137781,-45.1632979626256,-58.6029523895095,-69.4217073665918,137.244960117032,194.997026911375,177.650290341405,55.9892768004929,92.057898383981,109.584076936487,-26.9869201262545,-54.8627043421975,-60.5938201166227,-26.3369273763906,-26.7431250818508,-23.6098770398871,120.701364896106,192.244497162598,183.533750920088,-45.9853603955344,-100.101545624159,-89.9810860533185,21.3007362225658,-44.6209400935513,-62.2379351576451,-86.3243342390815,-78.7580003570029,-177.611049726173,171.664035705691,221.832400865749,163.628558363628,36.7657702922802,62.1513463099054,51.3334980186601,76.9707427242497,16.6323683985806,38.4131194622846,145.197355999161,72.9289585365509,79.9076696131456,149.763048618839,210.611817163881,180.494436337339,2.71081645315007,8.03229570017993,15.6740604611477,92.6899468018428,-28.2237799758218,-15.5126674391022,53.6338689459203,-0.731830032034395,-22.4428173438978,75.0505438132009,205.411698466168,234.200243954563,-14.4646299637411,-15.4422447374636,49.0686038510867,33.3242186778361,-56.1761929092763,-30.5288993112699,21.0023409272499,-17.1617329020892,-71.9210373806704,202.986736809907,301.542297074083,306.085029994289,2.47284987034482,46.7489982180855,1.49231777188834,77.9686254879657,50.7711971594449,30.3249281267626,-31.9075027794088,-100.827761766062,-94.0024434111433
,68.5,104.923629612882,145.58720354276,154.498461610888,-26.551729688274,48.8644672184691,64.3519270128068,92.2806899744633,33.6076316693334,23.2536576672487,-104.314309061021,-13.6868977139738,-22.802292013469,126.367273425954,134.600163767848,164.415030765073,54.8993601336238,27.4314412212079,16.0048538164738,53.0050952671018,4.32889562823493,-1.08399582147149,-23.8763443140783,-49.7416320861157,-48.2217173838944,128.662905354887,179.020721847654,160.887248769891,51.7039309143775,90.9661644467124,106.591176789417,7.73453771586173,-38.7521921264397,-36.6706251333362,-4.87670674763513,-26.4066917543696,-13.0360721635893,98.4538199738959,200.216939056913,172.822319525845,-46.2164620461986,-73.8890546019566,-81.287988512121,40.5936177981048,-33.3201797471306,-50.8265888399101,-76.3155827977057,-69.0188174231839,-197.050476174945,152.117565462418,204.290435994553,162.090965061047,29.5755765227646,57.7017370001022,40.0640560645388,81.4981231852539,13.0075877635163,29.9542428316727,147.401258085136,68.77726388981,85.2714076627194,129.277835024087,197.53198460582,164.113849668665,-1.81030780541596,6.79695720639029,15.0646909929878,108.339330036732,-23.2513650652963,-13.4057913697293,56.7337597150054,2.81903506379513,-14.6295482128435,69.6693929043763,202.940202654588,223.212332791444,0.605863401147417,1.41957558645163,56.3656501280775,49.368817643694,-47.7230916925732,-19.5915115844482,24.242186764187,-18.0717923191855,-61.2331290445954,275.89949643211,380.834392691662,356.62108919383,1.88346518633671,44.9497666363045,0.864485637221605,97.4957252385993,44.3135847625749,38.0058588826405,-27.5634534391993,-90.9038209601908,-72.5299643649505
,69,111.788319640857,113.935639938639,156.325863737869,-4.6068868993234,50.5138372831257,67.7096840698932,96.1214096619674,35.4544221477245,28.9953206330488,-133.649971567857,-11.5518162023636,-0.0788235971367612,122.520067358813,132.661409129412,163.82048720536,62.8370233566916,38.4874583054757,21.522625601875,63.3898469986352,8.90437575132364,15.3316124121811,-7.95892105880785,-39.8145957655447,-22.48810508321,126.891723608821,174.079814148102,160.130092468422,62.3331429318005,92.3678571700548,109.179686034746,11.9504891400597,-17.7266979486767,-10.2206873546152,23.2178943485437,-25.8339879281807,-1.06075792724141,96.8104042880968,216.389905308723,171.088344533452,-42.5782453698048,-42.122528047938,-59.9105809644507,56.25847862911,-22.0818673305394,-40.0958654495012,-61.4744227590945,-60.1726614841018,-204.785765896962,141.802092886609,194.563165270082,177.865487679705,37.6477772001795,60.9198926809713,38.5033657502881,86.9179965426538,22.2271680176677,33.750779934684,153.546828887082,72.4334013765297,96.0539920434526,127.995081866911,191.542602269475,164.371725249553,5.27771798972071,12.4060529330609,20.8773449206851,118.689594741011,-12.0678892509927,-6.40679964039055,63.0594049478973,12.2106832619693,2.67952496433918,100.695796701742,205.597000788659,216.19931495869,17.3361091153824,14.1927936853358,60.6951753613907,58.9001971613375,-33.0847814577705,-3.83025509359095,34.6103282851586,-12.0654828371703,-48.8270169264829,330.938159721411,438.077392593848,390.806942792989,-2.75584954615033,36.8733051818667,1.65821625300487,114.345631769817,35.0049679635576,53.4465753378245,-24.7501488801699,-74.921055841301,-42.4768872255449
,69.5,137.577834024818,90.4539379127527,174.137014930373,29.8903614280161,60.8854153374627,79.563299885076,107.826937987907,40.3789423283943,44.9397902214487,-159.952530222162,-7.57316303473726,27.092077310795,128.090912826345,144.771331553016,181.026086363982,81.3308998983557,62.426393613373,38.9640372399513,73.0789938870926,25.7953816462555,41.960775840967,14.6268614627361,-14.7663039084628,10.7222684104327,140.152425282316,183.284581787641,179.353993690129,93.1350668712939,118.754089451716,122.483026477981,6.59183366200432,20.3764410891836,27.2302676280415,61.9033508337088,-7.95791189824558,22.1780459518641,118.493218373396,242.141115976052,183.967453843175,-19.9798543654301,0.674700478293744,-21.8619050382445,73.777107430521,1.40207009700089,-17.8375673309247,-37.5854205071414,-43.4124514885889,-194.58761435268,144.331828825931,202.632949260807,210.032758882297,65.9486190974694,80.5279092436222,53.55086491467,100.143659414055,50.5354892130767,54.5799296635291,170.151821049773,103.002707981293,121.306578530835,144.286894710613,201.951116159692,185.801850415012,30.4775031412314,30.1106093735361,37.8440501745008,127.347555139534,14.8149837216188,13.5827580728414,87.3206504230661,35.3248418091193,34.1239524165026,146.341883007965,220.152983369601,224.102569445911,48.5103684824903,40.0914191125617,75.9229807170218,72.3382129880351,-3.90368029516685,22.0264721817816,57.4217007102297,9.36503558174581,-21.6131694752416,375.407934144561,485.357878924294,421.726876256222,12.533798023559,40.6950509619041,14.6426921277125,129.092250048217,38.925530510654,78.1808416651579,-9.80013553124127,-45.8546817365332,0.288671509104006
,70,182.523686261293,80.1676415414995,204.445296791855,74.3465941337086,83.0857418605574,99.7721449877367,124.875571684005,55.0035051711302,77.5151511951503,-172.559152513523,11.6260938614678,58.1444527907506,151.939435625934,171.821718342476,216.609687347579,114.77392731712,105.53264790053,74.2900805526456,88.3883353178703,60.1639068554218,84.6413751214973,53.6725570156214,19.9898096487623,55.9334900677472,167.920597458239,211.9008887737,215.713406288218,142.120837410449,170.148934358459,150.492422234867,11.6713901468911,77.6879139127877,79.4333607142225,109.204403258897,29.7814213050287,58.8517756104043,159.981537133521,277.834402773165,217.521426853657,23.4004052819441,52.5709812247073,30.2655231314061,97.0702649691129,44.6295352015763,26.9565906239618,-0.784652319940506,-8.51869221401148,-140.813932550982,162.509981074811,231.284565319058,256.522468724618,109.628801823192,115.906756548714,90.0229135562936,124.482181431492,93.9495455083957,98.0695662532044,199.144041667423,155.799567546611,161.610682471183,182.145452938882,229.14341235275,228.121860052723,72.4547270281091,63.7048010358744,73.2743097517346,139.104146882796,59.8748992128048,51.2199819523012,128.474267740776,79.877224121462,73.8138444457959,205.022818605215,251.189770337837,246.758869562946,97.3678649341077,82.2896343168109,104.13395632212,91.2467656653789,42.4240475821748,61.0381822755653,91.0827257646647,46.8546747311552,23.5067136854732,409.789511123047,519.651749878971,452.638530924872,45.6508124252177,62.8300099316821,42.2486970970035,152.453082325705,61.8475737040048,117.741039075158,22.6322509693177,-1.97950564961684,54.9372944159168
,70.5,232.422650753373,89.5187081381296,242.581325216217,121.130997051343,123.25476787947,130.281656934642,150.662577854643,84.9478018935347,124.198575114807,-167.945530672849,41.9350126385561,97.5737297127539,192.574921268665,216.386584345243,264.639353803178,163.278393549953,161.122437615958,128.570659002793,119.310366706011,105.702680141499,138.566527657611,104.580793487768,69.7745974819381,117.087123478435,206.599207748761,260.312723340504,268.007488842533,205.032015249568,229.612347919169,195.494690058356,24.9299662748135,144.808270103277,144.640832220718,164.638263942654,84.0034637716831,105.218120569736,220.151385147626,318.03549003822,265.51684710089,81.580225830628,109.958304470698,94.6470981289713,133.138178248779,101.504723449829,84.1483815314914,53.2073288663933,40.1574785273197,-48.1557974239004,202.649605395975,275.576839255148,308.756278975755,165.128712657956,161.64096001493,143.611748949089,158.241041640959,150.07067312137,157.629445413003,243.63914932859,214.417617718126,212.378638173119,242.922264890615,272.123998305736,286.579428112117,132.468088789125,111.028609630227,124.361061652943,155.017874452318,122.079410654721,101.945482067427,180.255322600991,139.509838388061,127.414737834438,278.130155334162,294.903467061764,282.601012731479,157.310802621533,133.922481361401,149.464276992986,121.281721102303,101.869267854244,114.263944502906,140.590335302191,101.914715251393,76.9689975480992,436.347933035676,534.528811388907,476.656793474524,86.7840097235121,104.766765404679,87.2071017167473,190.296446151225,102.522866793714,174.265500620263,68.0238646137755,52.2567259962666,116.928403591797
,71,282.694435945778,127.229993445292,288.805453462126,164.039472296467,176.277857476987,171.387211238323,187.247976462275,127.324486714515,181.329298379483,-137.192833542886,79.4089845906028,141.134070863781,238.07255999968,269.321294212143,318.34681014543,220.685190581136,220.000445911066,188.542434730562,160.828685768524,159.132251574519,196.290791088115,160.901316809066,129.733872881666,179.411511220137,250.022004577423,315.788265400887,325.65001576794,271.218085616401,293.509025987454,248.751009520506,45.830335283415,213.119529267252,212.406560022801,221.340245746636,148.451904384282,155.810037865067,288.944905098375,354.782102702644,317.540122894019,147.110195561135,163.260274179531,161.444709214148,179.25580717696,162.727204465924,143.014375164097,113.910161737286,95.9136442066333,43.1504648874557,257.515271638013,325.925175445806,359.272184629465,225.732327849439,213.776974398104,203.935115406322,199.936677198564,212.16254554102,218.32725258245,293.398436488761,277.560666751471,265.725642520853,305.545413445708,321.426320925501,348.931040926328,199.518331000629,163.602254066746,178.661353923575,174.661036430201,187.895123976289,158.009163481522,240.77826470748,200.713895226723,187.834147530159,343.247694492018,343.791135005833,330.19915261992,218.911967864996,194.399804726863,206.292138051313,161.903909606546,163.797642875909,170.269550231514,199.657818405634,165.459860322582,134.840521582569,449.546487588211,529.399890127114,490.114661440037,141.080483127339,161.628511804054,145.646052741276,230.562993813425,161.816444734402,231.454672674764,123.028672200472,108.312407698292,174.941107372883
,71.5,334.004128930674,192.659880590585,335.689091358046,201.549180140811,231.13758874376,217.013317370292,227.031604756074,178.839697471609,242.012306507842,-79.6179377016097,132.836693130011,183.507723509438,282.489726498269,316.412823505446,367.935487830578,276.586838447722,276.1889341918,245.436865154638,203.924074008726,213.591654080213,254.286776449809,217.907665154892,186.14249051061,230.033125648139,276.73525579826,366.061611730727,375.462959464676,329.783614743344,353.795605684247,300.089048335771,103.15041175287,275.347268204332,272.084692926703,268.78084621088,212.349212453963,205.597738791654,350.283644647317,386.305541241396,367.00276137785,210.28358852633,208.265034819357,219.149123725274,224.659570598377,224.643963821832,203.89989741641,171.16021331301,154.763969548509,126.430074250497,310.258872084824,374.771168951525,405.249635360075,282.532750295905,267.081900383845,263.454480823306,244.794780577265,267.074213626744,274.265808552077,340.411561709265,335.139775621994,317.509052555481,362.175611494225,368.755146619812,405.589635765503,258.50700258006,216.070841759828,229.726033641504,195.968119506931,244.385688005123,210.684580407084,298.088340326043,259.012420386955,240.390564954332,390.337569376396,389.680706307281,380.265121017933,278.343661717995,254.890957996098,262.948079003989,203.948687849748,222.719341189813,220.099963943137,253.042343822794,224.804181584719,192.018670620089,450.552662041388,508.258796040708,495.394947246927,204.219283422744,225.278638285767,208.592459997727,270.007630874007,227.383504486336,283.728232560295,181.692230919027,160.276139917672,222.672606301137
,72,370.67195629927,266.987673434768,376.800480242401,219.775699888923,281.558906749878,261.582117243473,263.674160525489,232.186124698139,295.107923201837,-11.4880852828073,188.00607291923,222.690714914386,324.397526922667,357.109099378286,408.266585579513,325.986070865236,325.229410374501,296.422896334441,248.016889087927,258.541349287867,305.626189181289,271.433926501544,238.471523156391,272.802054059642,285.554960857084,408.057440549627,416.209146202163,374.690175903574,399.388010535532,342.916775475464,183.114058419532,325.136646569111,319.335478903534,309.269477605609,266.590440902909,247.46249347469,398.156126267688,410.525496021521,405.933733078139,262.057825737042,246.937370777931,267.488263599663,266.337791294427,278.991583405574,261.655906895202,222.130365988463,205.936883126144,200.445428897565,355.559752819753,417.170156766187,444.133496634675,331.169955094249,310.870239007513,316.498098618999,284.75658454283,312.133319438657,321.535222093559,382.375670659086,374.772899475339,360.5375352139,411.541211136097,409.179857836415,451.953728094356,302.864216410303,262.63365718612,274.704895922521,218.914939496243,290.164831981927,258.166466705021,343.34702045994,311.438281390404,286.258242795052,428.113322527685,429.646213785513,420.445699703766,329.904662083312,302.60436734078,314.073069705293,243.180558172292,273.059860867875,265.734457460907,296.862718667733,276.095274876183,239.864437579442,440.901884253568,475.15789256484,490.393581864613,256.954922115962,284.618500789561,266.009012709371,309.904417750443,286.47035807676,330.273753548766,231.7474247317,204.644596701998,259.974617348063
,72.5,392.18187721981,332.708130146877,410.0775776134,222.956597361793,323.337049231546,303.353784722536,297.00883721204,277.518227175016,334.574504480715,54.8670289262946,228.417169877906,256.610339128122,355.372775556384,391.837989115252,437.191927057157,365.201659700053,363.443187825901,339.330841762015,288.572622363486,295.541658481945,342.447685778593,315.896469010138,287.822637477818,303.974635321401,289.800007431335,439.175630168175,446.415809493227,408.164506305447,429.775755882401,378.377484156585,248.66358263955,360.790306170868,355.308320505587,343.195664708773,309.548596178889,276.081786415625,437.448854862012,425.922716505239,434.28300374088,299.655995822026,275.437377848941,306.651797031232,301.013796821461,317.055246374513,305.537267674844,268.399046223874,246.777910541991,251.043534600853,395.807954062365,447.252552608838,469.631552648884,371.397070278836,345.511290768415,357.466470977934,319.197708802908,347.85742157606,353.662399849045,412.578249259474,403.017004289055,393.218075389794,446.668695146812,438.202831861181,486.01645733318,333.518172238429,302.217191467284,309.356867861069,242.662250561518,324.974104481186,299.029115193932,375.547470249553,347.921496045743,328.912018844808,454.304623561329,457.148278452466,449.506887407478,366.456197806836,341.270328321539,357.629745263084,279.653917532468,312.979351848717,304.957943977193,332.269857311748,318.46526656822,273.383995759752,423.917615453795,436.444841555895,476.465657593843,296.489059498441,329.758736934915,310.523322419354,341.334322962675,336.731733494678,362.724762511075,269.948619978954,239.347083314065,283.004717712178
,73,408.278613944901,384.161022825466,435.531443876667,224.642417715731,353.284295512365,335.3003299416,327.06926669791,316.650384433372,365.673275913201,115.627595725633,263.776659553264,282.422623138955,375.06862247376,413.390913783538,454.769422176727,391.945330028845,391.518593396154,373.05508338694,317.198238460087,327.65235623547,366.987439692578,349.90726542685,325.179873764356,317.041003219109,290.420952351851,456.619305721645,466.096492740658,432.094754222346,449.350537496975,406.756528701309,305.68759486438,386.125347674156,378.107645609148,365.784071672217,338.450118750186,296.62504957537,465.044622032113,433.847721749034,454.513293092312,325.934414796636,293.915986733645,332.997202615799,324.852139308875,344.701593340526,340.159060998792,304.550314120777,278.53951124365,280.711393728093,424.731199983813,466.749376223878,486.917052898941,400.902881141769,376.184584792479,388.35521170442,348.726321475979,372.130864716568,373.537215705443,429.088217193678,425.816221226092,416.693774057556,468.490263201248,454.862385269825,508.708755947072,351.873639417577,334.95449164559,335.31602601524,264.395258596332,347.313172519221,327.648730005796,397.334731411422,371.159806928466,357.510555260319,467.762416730422,471.602826821775,469.236348246612,392.463933970057,374.36229256559,388.406760769537,307.399552332859,342.375838081844,332.01917325076,355.261385991926,348.100184755008,281.57781678967,406.256940534234,400.304183203481,461.674058908569,331.149626242309,360.799122907118,345.030962079642,362.51591362894,371.651957065381,386.199584095004,297.788695749244,264.953609334794,293.983381772476
,73.5,416.08532774991,417.352424550398,451.589966002396,230.833112426854,373.509510985083,354.533682166549,348.243656237781,348.913619686271,383.352960365316,163.931210840361,295.4093421098,299.957316427631,390.338737491636,424.901583007939,465.011193485525,408.23473621831,411.908800176493,398.978034741954,339.720660969303,353.021960767773,384.37815876008,373.023480639311,351.421162545666,325.44126493017,289.833961056831,466.092646099014,479.556315628202,447.097439928977,460.385139109661,426.269224249564,354.588124682432,405.195606333904,393.09361867143,380.942332042946,357.757761874227,310.576474708441,480.514317071944,439.247045064145,466.386503352807,342.920357912742,309.68894305834,351.518304965386,342.694149025363,363.170190142792,367.991557274403,329.736733574546,299.181857875853,305.759641126046,439.690467501626,480.721154443851,499.613890600353,421.905586029064,397.185682000859,409.577964766606,368.721596464192,387.436397898675,387.609736758234,441.324799386347,438.257376890766,434.572972349773,484.829379939767,465.660918296153,521.924107630419,364.306063317586,361.026013207525,355.08764543751,281.041842687298,363.173706825507,350.341321133793,409.371625054811,389.202387746648,371.429901144163,472.435142955578,479.463232092455,478.744185341619,413.343725231676,397.869197202278,408.9387851894,326.068162822953,361.123805528392,353.602786597673,367.80532847255,368.768541931738,268.576682240745,390.972661873971,369.974618365382,447.948691860384,357.774138648473,383.386415231083,372.366938803137,375.989693355013,390.378095668971,406.205463068105,316.207593905661,284.607415463184,300.82470062529
,74,416.774423237835,433.679116798784,458.963497607257,241.519091846285,384.38960623086,365.535037724376,360.781591745123,369.458011726306,392.418533204782,197.925223830533,312.323734087549,313.596962029303,398.519272909543,435.19702468869,472.537123760317,418.366929733077,426.450291192268,421.006893117771,359.880236501884,372.43097374438,394.393791933416,389.102155736206,372.916665251454,336.948563389646,315.117454757069,474.203070982758,488.909611514528,456.100350998379,467.463070492606,441.768028328488,380.788870031377,420.435297816555,405.897707657819,393.60410738762,372.820697981008,318.442450944505,490.826797186392,442.880553969679,475.227788589074,354.79750525855,323.225586411827,367.073041774485,356.377728084718,373.559616755791,386.948854080133,347.450794816266,313.013351883336,326.544935065167,449.176819804301,487.49157234517,503.479567658423,435.939015767023,408.170493475002,422.556643456674,380.804685588626,398.360957893206,396.873931848296,451.420356192838,446.212433416051,445.835135774325,493.875070180473,471.604442816821,528.980703789437,373.234830978825,377.73655872364,369.574802627528,296.285876211821,377.793845804393,371.883952314387,414.205270201679,402.298608878905,383.42972410457,472.84538148015,483.701792526936,483.127812688503,427.949787626412,415.892811577288,426.279072373929,341.784340342829,373.07643447189,372.751099078033,375.78115703395,383.659222806604,251.635774673824,377.508811282079,346.054675952948,433.782548487789,372.93170479948,397.98618215464,390.259867346661,384.259833648111,401.364420851582,417.974440313407,327.5598383363,300.644212970298,305.140672145283
,74.5,417.937209868852,437.030181368988,461.893148931613,273.246171904641,390.938497754965,370.059052471384,369.48034302028,385.736292433459,401.923389697573,219.37262950621,325.056825069976,322.125454860928,399.816573103732,441.49303189547,476.271591861512,424.995202777613,435.004323309403,438.51920565995,373.932690385291,390.948376506608,400.113015469701,400.094802891134,386.065164657673,344.968265806028,360.161566037142,479.917701115936,492.848110348318,463.564700156735,471.328911592122,457.153764093935,388.750838061998,431.909528585073,418.92712507696,401.643657973039,383.74109524825,306.35913703071,497.472470433815,444.974486688087,483.67256047205,363.833403922443,332.380672129744,377.888077656448,365.115129485477,380.973088244572,397.107477941238,361.605780180092,325.84158808581,342.682958345697,455.773131484715,488.374302209996,500.911809959202,444.695236220487,420.533759956363,432.684493101741,391.20083808768,403.950335475277,403.97110031574,454.862832491641,452.976605686044,452.814855405132,497.337839633731,472.958706918151,530.93739102071,381.165305786141,390.30555712859,382.919757334894,311.657483576457,389.94057551163,384.565270903787,415.668267414976,406.855638141315,391.474600643932,471.797289585583,483.237644094122,485.202039751184,436.789434337554,434.899140334898,438.422888200069,352.871753034459,382.32323282639,385.45906845888,381.846896694512,392.613281794051,234.879029262948,365.612427226603,328.105607983846,421.936123169853,385.379308719639,406.586090273846,403.01425775499,390.343713655946,406.147181859944,426.243142931511,336.949772585291,313.022789161915,291.979742634733
,75,418.859035575835,435.508901639202,464.5329209542,318.729064268126,397.286878750555,370.226272188666,374.606160975632,400.773217425517,408.64991209146,233.142550221471,339.953284348121,330.560030402463,397.84279400439,442.6989350413,477.428995056424,429.595399834624,441.181208785416,448.228023183088,382.447970551025,406.029798302739,405.256022643499,407.582283255624,388.54887907315,350.727222803919,397.827456898631,482.578260880548,494.327805263215,467.921339530256,473.531482810812,466.831788966833,399.197155736962,439.285908217274,427.111481632295,406.067167107599,391.160021661779,281.913670595476,498.615997762521,445.200956251885,487.77241609404,371.555394148587,340.397995790669,384.709366263099,374.144244466875,388.913123179065,404.515406157052,370.635005936191,334.789154636451,354.78899162456,457.643809110897,488.375496618747,500.257441353011,450.139051773914,430.20060038687,439.33742626693,397.887066620936,407.217538261055,412.275599205807,460.428150449014,455.203361469156,457.491383951044,499.855361807299,473.471294064128,531.371378789931,390.330684168826,401.070302898503,394.901991134108,321.10913851702,401.723978821466,390.055234728126,417.914507874547,409.707400509562,391.02154289774,469.948124458608,481.438081535491,485.441232100489,446.38717046578,448.585190151941,444.976677575036,359.685862421932,388.196225361611,394.362298603708,386.989627776758,396.632162972262,221.21467240627,355.39545695385,314.397772617683,412.954451122228,395.905846550453,415.713144831356,417.929320016529,396.424454827831,405.719348100518,436.957256408549,346.418609705374,322.610819521039,268.816194285555
,75.5,417.835030743874,436.370533998604,464.895800048414,357.282778130209,400.385455038142,372.607621370526,373.238601821859,407.741716072773,409.776645601612,242.696908966921,349.9498866054,338.355717047029,390.922750624229,443.052029255435,477.587140933435,434.686173189799,444.687038361836,454.250342537815,389.456890288976,413.404524673394,410.004256317307,414.13317482658,389.183033114857,361.548290754325,428.589351365094,485.56817844879,492.381646754497,467.899343897166,474.759015039647,468.249397210448,407.012587067239,444.366416821668,434.753656747635,409.842015378464,397.23451845928,260.707791760147,496.923675970162,447.308185751357,489.269773081899,377.377472619399,348.15285005455,392.421134736745,385.155411616846,397.639635904251,408.296735987207,376.679491733541,341.291450196317,360.713348197861,456.397347653126,485.674530590238,498.472375078396,452.994847893362,433.328050268902,444.241474626752,401.826543953523,411.185748052912,419.55028275176,468.745971032641,455.429682257508,458.386740143444,498.905011395628,472.705274638825,528.799579711523,399.874805087657,404.647340765367,402.604836782627,328.767671526842,411.62954743155,396.912000326362,418.023711181894,412.278039280838,387.154238051164,468.695801374343,480.613141903216,485.507543437565,453.885820335119,454.036317771997,450.232225385066,367.801175869421,391.326777557426,403.049308072286,391.7368915828,399.867665242996,239.412197902026,345.292309908861,302.88655622993,404.77040786961,399.884470147618,424.75140243709,429.794967876369,398.476258683817,408.465418646289,441.687537577097,356.669664184242,331.063646296569,251.665785498531
,76,416.347899784869,438.313188764864,463.194923798253,389.28753721352,402.71630266436,376.959986890814,372.454290711965,409.833422784739,412.729424837798,248.600237692865,357.816343172003,344.918101769911,374.589276212127,442.638094858286,475.859229113183,439.422029441406,446.443372949621,460.071268090237,392.976958024715,415.559964526927,415.585369501706,419.586893885735,392.845319072561,369.340581484807,451.908780654461,488.253087849932,487.722952792485,468.268301372505,473.580405320691,467.521190160011,411.649620098205,448.721571085152,442.505244165893,412.969003143396,400.85039639033,241.03768176937,495.176834282521,447.665442043318,490.84725757285,383.633294716255,354.786175400041,398.434516520989,391.950647643601,407.04622998126,410.07930319036,381.129402936731,350.489024559179,364.33385536319,454.940642676207,481.031477408938,494.453991210813,454.807364911199,439.443122207615,450.792887294437,404.543763920697,413.699014251758,424.407076457883,470.559209765438,455.102516816159,457.512404636434,497.711862873627,470.428654283741,526.457965640049,405.829543520879,404.117411383912,407.99548530479,337.536049222761,418.147349119072,401.693559809143,415.861830816846,412.586917704457,386.081679302043,468.404380510282,478.336711658475,485.352149034475,456.745927823461,457.260652484124,454.250681240578,375.440058757612,399.749673548446,408.849317194003,397.261732106312,402.422858024398,285.541269846059,336.05471201974,292.654058127264,396.020527567462,402.682732180991,431.571984952468,434.432549196961,402.737009601007,412.96687025756,441.769475737109,364.608575122498,338.490321250368,234.926611958679
,76.5,413.390267297191,436.418668610132,463.687160004119,411.644123057668,407.594897011815,379.107775972299,373.522518330857,412.264060802968,415.394797796628,251.720394361426,363.491892930931,352.122252324258,348.52399942748,440.463611980106,471.348670826608,443.596089909742,451.003994006109,461.922129566599,394.109701861786,419.250753156305,421.025719876699,424.402014787486,393.2905210223,369.785455498956,459.733160251004,488.192587802839,484.65780569792,468.274470440677,472.374089413921,465.805036857606,416.49862442339,450.265046019984,444.982369833702,416.392488092776,404.087966533431,224.591280731216,491.210650061313,443.979400885874,488.25946845937,390.489859147528,360.542340126021,403.244057532128,397.81022159404,413.644003223707,413.219189723676,386.707661189096,358.209470601588,366.64073671756,451.941933792379,478.315642835581,492.529371260595,457.603773232448,447.179919805896,456.064657421666,407.908946303834,415.734884578792,427.668403140586,469.210337413724,453.413369895908,458.200587512347,498.082274975367,467.659897135311,526.762567740545,408.721360587267,407.895993042916,412.200995613839,343.194920525848,423.107323131562,403.300659487772,416.279280104503,410.996707028016,385.999809995845,468.147609864493,474.979992545765,482.463826131215,457.73091860035,457.56262192001,455.940559792977,381.252714768634,409.419791182855,414.135565858724,404.227176310658,404.180557895926,326.002868408088,327.926149958407,283.884900603915,388.607904567997,405.463980791518,434.718221919522,437.063416910642,406.819759229129,414.415720288338,444.395138972348,372.030191711145,344.43518069519,220.466984005848
,77,412.799297225751,433.115185703151,464.060340168125,420.057822154805,411.917518674314,381.990178418591,374.742622483059,409.093598647391,413.015135786766,255.147801646972,363.490692629997,362.407040676202,319.659010753061,438.204892844197,466.870785887081,448.220444716914,455.115410831198,463.340017816446,394.990418664714,419.151506762396,424.459558304317,428.11211116277,394.996614475597,368.67811917672,455.410034065508,486.469732287815,483.082391631284,466.732634893417,473.157640015002,460.782754072365,420.134884984731,448.582216815967,444.567872294778,420.525245565877,406.264848726791,244.649955231977,487.608282260078,441.235490118263,482.646209065951,397.149644197453,362.63419494371,407.625117393898,404.564399037335,419.545148744186,418.062039434197,392.15657838371,365.035196069824,369.585935133946,447.416372562071,475.783716785973,491.131140616588,460.21792646787,449.342615765968,457.210035573304,410.862155867324,421.089954650457,430.023893845368,470.657965144352,453.724759565063,460.088928241396,496.298495386424,464.643720307809,526.16039430431,413.121183667277,410.511720892152,413.56050476586,345.091881113237,427.344188450109,408.215504126603,419.588610504127,410.528651560642,383.425094727363,468.222136820031,472.575350321503,479.730163008275,458.521572926392,453.607186629114,455.820114549849,389.897151437581,414.130016560346,420.918442962323,409.451635878986,407.930959209956,361.122939022929,319.861660375615,276.598363356053,382.618113417474,404.386868108716,435.251958064437,439.463126023166,407.095864399739,416.391318486862,444.38231334078,378.292441284284,348.33803109091,240.043273005715
,77.5,412.007312140614,432.256627180933,461.799015671489,417.754039392622,413.602713481109,384.795692044113,374.855481556612,404.889282216987,412.343219299039,260.337740969665,366.551802053265,371.443867813337,295.80070691422,434.976728598302,462.26841949788,452.06100035029,454.786900052799,468.987163008809,397.717804436591,414.745250612649,427.395280399774,428.226817355236,401.408029206698,366.048988210812,450.607948587974,484.533091956715,479.553821311359,465.620677532473,473.132251725977,456.379411490033,421.231578176385,447.22439927028,445.895144223549,422.724895472726,407.033132089752,293.600955444029,483.07729834318,439.028452215643,477.47616237904,403.226049697959,363.53675794113,411.243978773054,408.726164698209,426.352690967597,420.500079011721,396.950185080482,373.46034594499,375.758127637788,443.892930703951,471.621019691704,486.709828684525,461.494404221707,450.770375664181,459.778635130846,411.1174646747,425.185189582357,430.441871825071,468.433726222474,455.713960457571,460.760952664219,492.12233590195,461.862465983652,522.628793228229,418.039696398324,410.758610232305,412.579129997624,348.903324969099,428.122293226339,415.526348652533,422.208606879276,411.550416673893,382.245284963364,466.857998965589,469.713147184447,477.419937638179,456.564034650585,449.933219628497,454.902198068129,398.636925852238,419.331295285169,425.32487886941,412.926443743521,412.829130028693,394.682041093418,312.76132690697,269.625264411616,375.750772152846,405.075979886389,436.657835487815,437.407524591988,409.037485980886,420.593044484886,440.365804930754,382.456297793407,351.79594934015,286.610240418471
,78,410.307469558999,428.305742112898,458.698155956725,415.720697815198,416.260533298466,384.198200056219,375.749623502365,404.539908491285,413.534273193377,264.599338581872,371.489674774216,376.843453330401,278.367441631259,431.981882733337,458.167963284568,454.107396528925,453.643467433987,471.326858471159,403.133502751445,415.067225599177,431.52233272615,426.234138618165,405.277752937241,361.704709503076,446.22468228206,482.057454799276,476.29549424025,464.909667535794,471.316275290475,456.072538812028,421.632607411606,446.324157949974,446.286629281988,425.800814192751,408.966585039805,334.945024781445,478.044056160594,433.800195573286,470.810966658103,408.175308881551,366.05179619786,413.387060467043,412.141610149376,426.591766886865,422.558223726077,400.877351192309,381.35406304869,381.561966308511,441.643447240883,467.319212518546,481.811376959052,464.201465003008,453.013584592773,461.400040182516,410.748919528219,426.123212308898,429.810303133249,463.26714751773,454.576319529563,463.020039035544,488.055700926887,460.366291687267,519.753097322815,420.845503680618,416.007093457859,413.524957645073,352.636627661651,430.855139944103,421.382132218683,426.473875485691,414.164801479477,387.582238380049,462.931769827911,466.315878439794,473.837001619017,454.327550022395,449.439051451569,454.490449943022,402.706818112423,428.006077559166,429.459417668877,417.914868800234,416.600274185751,410.373325416581,306.234841789333,262.967184468772,367.64459086588,408.509203419409,436.284623618162,433.991753232714,411.843508517259,421.981800813532,439.188460957468,385.445270389538,357.209472614992,330.436770247091
,78.5,411.712305630651,421.212075776615,456.762723294843,413.966325627548,416.596716674912,381.742606139778,376.755032117496,405.91236191911,414.421109200435,266.901704994572,370.796435331822,382.027657150833,274.521111808876,430.857665610743,455.207293955928,453.415040026456,451.48777901132,469.077220628457,408.173010779985,421.281924660313,436.422028966317,425.573946449486,407.592746510337,358.854285664346,443.739079639519,476.833093848505,474.428412945943,463.280412030809,472.668414578963,456.876409331512,422.550297529821,444.672032950305,444.122290276395,429.684120419356,411.837064849436,371.59970516112,474.384082999646,430.352189994463,463.542007242352,412.249539498071,368.317679224911,417.381143344052,415.687817293234,424.506073717717,426.315555301339,407.621231455767,386.814753117284,388.024389659065,439.314211685244,462.970846515021,477.567700240646,466.959732704428,451.675302833067,460.62599655913,414.098132151496,428.063195000593,431.561935390841,460.943641265624,453.384757833116,466.701708193447,483.080859385776,457.311554213444,516.383149185669,422.846914084773,424.583817170291,417.139110101464,354.884374416777,434.842808596223,425.482066715671,432.703162124395,418.689122343813,393.290478099199,458.314075794635,463.583153300684,471.002079515535,453.465333029418,448.25456859882,451.347822534348,407.67502011239,431.832659805545,436.19954178652,422.042475655332,420.408279461967,409.90777240431,299.366461589582,256.907745457265,361.16466624843,406.571139799878,434.96839834329,433.854999042454,410.71552022466,420.351359992737,440.424432768649,390.78122268423,362.324127065165,374.342082323734
,79,414.061128013032,418.115672595403,454.804075785004,413.975142192752,411.717477702858,380.685132893105,376.885891159227,406.393886613063,415.302253789062,267.839281126777,373.791535834765,385.239719324487,299.158260305509,428.917531494903,452.828744282343,452.534473651653,445.816235766251,469.798061053004,413.351753538784,424.751275904426,441.212946823073,427.304761972204,415.382675320768,359.942978813883,438.715294912342,472.695665546513,470.401288049165,463.716281865079,474.85660999082,456.949500828064,419.860896056085,445.781552827579,445.612011884047,431.920361026498,413.275721434799,403.650835399607,473.719036964296,429.827247009368,459.731807742564,414.714763651999,370.795752689453,423.585047288915,417.277554688731,426.238790467198,428.632076527919,415.616941037835,393.055808968315,398.095731215074,439.181550096593,458.851800154658,472.205356540157,467.55002224082,451.231383125612,462.545022992798,416.755411538328,431.857448797908,436.042885083194,458.197633927788,453.501559200092,467.469964031156,478.620915903565,452.960263600289,509.601830908763,427.1728205515,431.917639937987,422.688006036688,357.615357850986,439.583079028809,429.989845067261,436.799622750164,422.307171470634,394.392026520889,452.694550980078,460.309871212408,468.63784355691,452.167432277648,445.465271363265,445.714259468327,414.970231656953,436.519423658172,443.440691259385,421.866079605574,424.551942833446,413.96201698506,292.497705985518,250.533688252088,355.532184026447,404.076866931229,435.516463181661,433.077372176209,411.255946262554,419.417217252753,440.72951449101,397.453675370514,366.977915800549,415.626211608888
,79.5,411.882134955998,417.540478362374,451.666024074655,414.401277244375,407.143884099408,378.796647098452,375.011647794532,410.151790810068,419.508979435985,270.413316288083,383.26648813404,386.338088301659,337.679278158392,426.753835220853,450.049494238516,452.079403096594,442.956539697617,469.739788765115,419.483372354618,429.709545951747,445.294330871196,430.981847515689,421.214891897194,345.722869729459,433.51555775951,470.738909717273,465.75270085144,465.120908158819,474.678946089574,459.082000328977,418.197192078827,451.558931351116,448.043663987089,434.697589088139,416.792973906938,417.172006075046,471.496683201595,427.295526797327,458.201268822523,418.622014639046,376.72551133363,430.728359524777,418.984143235462,427.85441372778,429.432762049983,422.727494652426,398.436660958083,406.49343420328,440.287157434228,455.469044399586,468.150787793503,469.624124083962,454.166276045866,466.571696030418,417.317123435484,435.488482095998,439.762069493549,453.797025788219,449.612238949162,464.563582187347,475.228837996044,449.391783281404,501.698518052986,434.242052964226,439.343822222623,429.27345604592,360.387965819411,446.316829995444,434.230649454969,438.818275624836,427.063728374531,399.674444119154,446.749166287106,456.552611842455,464.886059232276,450.257300822218,444.314824052435,443.220621232248,419.526522134942,447.850341198483,450.664776714573,422.84599621497,426.184304650873,418.678069458507,286.941994373583,244.081854036455,350.050725128017,406.94900488604,436.486101400112,431.837430584115,413.504453280281,419.528393420955,443.371746331503,404.956952921999,375.128664447871,440.417830425688
,80,408.710520264035,414.510822105423,448.213587232081,415.634980450935,406.843658796706,374.944750189822,373.403015910377,414.807463804943,425.423865193112,272.431259570385,386.193423426659,384.338692998087,369.61209483225,426.127095924016,448.124137233438,449.951478937976,445.065335489058,464.8118534111,424.154038727494,440.26207530635,452.1874199033,438.975962249636,425.577767287519,318.917382708252,431.067284590649,468.05693173227,462.238226988597,465.881729296036,475.764937340196,461.751113517309,418.312139880284,456.574466385463,449.755634253004,440.472857343437,422.394807590929,415.753219423214,470.77908576236,425.387595533324,456.205089779726,425.97595087596,385.291112618925,439.508886303598,422.122760107949,428.458065969286,432.72360068191,432.244607980024,402.0667719026,411.5253233709,438.727692837286,452.357304308814,465.753154917888,474.73032348164,457.047853744689,469.453901908662,421.365752901093,440.490172524931,443.887671250316,451.680221883737,443.622077505903,462.594644970353,474.213488502266,445.506884960072,495.284490915324,440.212537341912,445.960660733127,436.052038787087,362.230860324873,452.708772347272,437.362452437356,440.837895477745,430.493087266273,406.58949594989,442.267660096993,452.949833067506,461.523182342381,449.157146016634,444.686504190427,441.595864942086,424.873400353236,459.080164533598,461.620647633372,425.123725595633,427.375592527011,420.006825267687,281.669333719496,238.885526614224,347.100178526641,408.36611680641,434.841568992915,432.641507302227,412.268767707462,419.0967527977,448.510548010781,414.797515094982,384.245742524388,450.183327625393
,80.5,405.357461192633,413.106932953131,447.425200635075,416.365402482936,407.655541172953,371.99818263385,373.27757806495,415.901179565808,428.759794865719,272.491612000467,384.442700520724,384.910050664516,399.950706778577,425.687251976951,446.730465722921,447.719897569428,447.817711132409,462.166049591856,425.323888008726,445.794735852953,457.996412346717,449.11552744995,434.514759834371,296.470242036721,428.306327953421,465.021077999025,460.377168831355,467.649286004486,478.690898905208,461.380124982233,418.81223283185,459.798643811968,451.324966920124,447.184917163076,427.19789399845,418.434178477184,470.351924989933,424.329279764873,455.458730723612,436.068753216558,392.67952133092,450.14155576683,424.471912037011,434.493334351446,438.082848496994,444.486697634392,409.574620453046,422.928388973188,435.110244001121,450.635889289631,463.721654769693,480.30773537831,460.683187605373,473.728003948724,425.209811620863,446.822911675998,451.123971562348,449.278166523241,439.125750400773,461.434308839524,472.641944070284,440.685531734777,490.215992314604,444.070548532779,452.29876370163,441.48324434371,363.100204000153,456.509147657709,441.619667401098,441.060685462729,430.898383445095,409.10494562964,439.579837796842,449.525531422347,458.179663979991,447.926245080812,443.739419782584,439.255019085108,434.4437743081,469.029694445788,473.277313163872,425.024259504612,428.655511964655,421.593659371418,277.414192747375,234.716625453581,346.343525628434,406.775089323996,432.694860117761,434.602862064819,414.144263132226,417.478168988614,451.695907015398,424.882282358338,391.782902640965,459.272121374157
,81,400.453317200416,413.164988926831,445.692217255296,416.80121782793,407.512256823666,370.338274482922,372.283148246567,415.622683496538,429.31782729096,274.256597703035,389.100698234171,388.976151607767,425.542044237573,423.457865590528,445.394105227487,447.381148712967,452.028449474032,464.548930016607,425.161925939587,445.540619988369,456.473165911627,456.596822541783,440.444323071436,275.956426295562,425.434780962056,465.031834432499,459.644938087629,469.176447744426,480.705413672109,459.848347754514,418.096036445602,463.449784975016,452.399575853781,452.844236384409,434.316594860685,422.53816664531,466.812563863188,420.781507265021,455.091662147373,447.97999220201,392.959315352253,460.92326566623,428.09161871859,442.359984037731,440.520634852833,455.084065697062,417.895640746006,434.807180289695,431.933497138803,449.003107265403,461.48041775608,486.846191784104,465.913013507653,479.157881046654,426.15799420676,453.53792872079,457.133721055588,445.029503643405,433.512697129093,457.781374885245,470.117738585795,436.863766634394,484.570957422084,452.11838606373,457.162366002616,445.456640466946,363.882354821655,461.314197261791,447.483293405621,438.168239922424,429.031741830036,412.356110080204,438.803229117749,445.555968642818,453.352889517545,445.955673893844,442.451070413888,440.330658322311,442.416654174285,482.21027528775,482.381683903271,424.880507267171,428.834721057419,423.921501944325,275.496509774425,239.878924101035,345.143471792313,409.533312095027,429.662923628609,435.042554336955,416.961998304989,417.255348259358,454.305787994272,433.538160334531,400.705255152786,471.03197818819
,81.5,393.792649397976,409.27216499712,442.4314314495,416.412598832325,409.886218947015,370.158080385633,372.922006866474,415.82148268162,432.569203420286,277.366952050476,395.117260355537,392.258476660269,433.865431597299,420.886877872852,445.243714593376,448.014539817215,457.267767780504,465.412275429583,423.474267017019,445.674551856806,454.13565110073,459.202420333106,439.091237354233,252.905532312638,425.740350983681,463.276105842333,458.505048053653,468.110455157133,480.327990870278,458.066957243992,419.578953798848,465.426982764272,452.26309764039,459.202050035824,441.437523417859,427.865596062628,463.420626431291,415.411786400758,451.635983317206,461.755683963186,383.886876724177,470.380241218074,432.115509752335,449.250696837176,445.109216217344,462.710770571824,425.361478911544,443.409093607101,428.264222654213,446.231361609141,457.137242920393,495.055915422372,470.071970119702,483.418698970376,428.085198459323,458.475693431805,461.379472767775,442.397735658294,426.722938247346,454.463629705785,467.706247335467,434.123602866829,479.290187649903,462.953245565861,459.547055086892,447.788095311373,364.098572678834,465.35725598372,454.130934871401,436.111689603321,429.34059373582,417.935493468446,439.518983770733,441.585681200443,449.079775205108,445.468142888404,444.845506329111,441.989420696903,447.964412125394,494.335739117202,491.798578754054,428.059608797063,429.938403516839,425.84227272247,275.169758014914,260.495977203678,342.64857549892,412.782110495462,427.101980158508,436.825840113526,415.626601328741,419.193433049174,456.752197205195,441.472318304889,410.886151242597,483.041682701123
,82,387.467946910126,404.82561186644,441.161368110758,415.628955950402,413.23518808983,371.090133038804,374.866981934692,418.329199103229,433.903819329151,279.31384271556,397.275784239279,396.917054695888,432.427447403785,417.339166914126,443.722022536942,447.198061507943,459.605408259864,465.365685894654,422.65474194748,446.129563766211,455.432198949276,458.55400931852,438.652127904614,266.103123410616,423.714260634818,458.699250954005,456.291353763802,465.353117821436,480.077023559179,456.11124152117,422.041642051935,465.083373789761,452.159190286078,465.586896677173,445.994935875393,432.880270135399,461.093807430102,411.240041527802,446.537422912571,472.519068652145,373.939538671315,481.031122652023,435.714029500061,455.510775480781,451.820323823696,472.862392718727,434.17518653054,453.321487105059,424.278291073443,442.470842332253,452.275462655316,501.289770805819,471.541325426529,486.719243868747,431.337566214571,460.818799397142,466.513728818636,440.389244921968,422.930117608752,454.120256065525,464.83705783334,431.14087675612,477.306222029433,467.87012640788,461.20194134357,450.050089110569,366.050129537766,465.387795957744,460.353361368042,434.097224307126,429.321130823372,418.391342189135,439.694158111069,437.637986291264,444.733486071612,445.578675907839,447.763924768364,440.807925796583,455.284024754646,502.291600664574,502.271341547255,431.250077703767,433.76675947896,428.749489862798,274.634912951215,285.486196980137,338.079076027088,412.075368649522,428.316994706169,439.398570138815,415.35577770075,421.715830373781,456.925790978824,450.230655480086,418.93259904793,493.753853920568
,82.5,383.913610490206,401.742121700517,438.732697616312,416.620561098617,414.168266748662,374.755622491044,377.856639542719,419.357300233994,430.78015341124,280.540446589042,404.570198601581,405.485229221237,435.021182628639,414.110376132077,440.821822124274,449.103393734615,458.287060358046,469.005443102616,423.429834025307,443.166491555206,452.176601563379,458.157529251186,438.809857627748,314.687536092395,420.246177147365,454.989528338879,455.958945177661,463.094857622782,479.824547366963,455.164883276096,421.380411195034,466.420120862209,451.7274357751,470.965706424592,450.694427401668,437.239252552825,457.192955030298,407.413322993574,443.276744698594,478.948444664252,365.96206264531,490.827018614679,440.579269900307,461.382672285587,458.042877221412,482.756714707772,442.197354958408,461.956461113161,420.972252218996,438.557578835726,449.674876569676,505.08514603209,473.094999234994,490.124174268866,433.664166641716,463.90305639731,472.021066101751,437.351778968145,420.119927919335,453.565460170864,461.438086964587,427.779891982941,475.082653018918,469.600589496528,462.52373005054,453.098043822384,368.695122880052,468.887809730593,463.825826548417,431.010008394609,429.637892960184,418.783807273151,439.479941866436,434.47310347975,439.972068826249,446.078215170554,448.66322536427,440.016159149576,460.665528896603,510.935735433742,509.479967654493,432.946203803088,437.986248262497,433.136087430085,275.062204060917,308.136156322163,330.90336690766,411.682169916231,431.346979332445,440.532764038263,418.150522300836,422.54012783799,456.061294175654,457.191778710301,426.699690288865,507.434383267403
,83,380.767736829813,398.625343455327,433.444938136936,418.16019894158,413.417802725718,379.476638156468,381.075030050054,421.735104708601,430.666380175527,285.156163684222,417.957914136744,412.196505149963,436.21949815879,411.503950338924,437.448959714989,451.168001853526,457.135034721699,472.769495045131,423.741965898327,443.886017602466,448.90064736682,459.476848636763,440.089245019286,359.024543645585,418.980952171059,450.533866881563,454.105454440697,461.349103358979,478.930044732658,455.27155817956,421.04264386656,471.263738133227,452.774703706058,473.684347759146,455.25272777341,442.822106497377,453.313609691456,403.848848360151,439.925981342988,485.165532127596,359.53776793598,497.914394001257,445.592382568343,465.365437199613,463.820584058744,489.718372814916,447.250848519063,468.5313442553,419.009946307737,435.700730137136,447.110048259935,507.028214178407,474.600126520177,492.558511018212,437.160471443201,465.576062515211,475.751203443786,437.98580882266,419.216986623296,452.952779834846,460.950675221276,425.225930390055,472.191342859364,473.87903359582,463.098771208413,455.441334555102,370.773498250013,474.428607254532,467.353383902316,429.415115264588,430.55394540671,421.060471483077,438.972428303718,432.385749236202,437.476189432747,448.073166027013,451.7657901508,440.526331914455,464.462057401755,517.913141239745,515.642527728578,436.404127550539,442.245613872029,438.866644775507,275.459296575555,330.194570161517,321.529913128035,414.054128138871,435.270412152607,441.527653223615,418.539179740915,425.034464858318,457.780656926153,464.162318831264,435.921405567816,521.681527018951
,83.5,374.626384942605,395.081760410023,431.669437502464,419.423978862967,414.736995227213,385.229575785911,383.475611624817,427.904171601572,435.482181355605,293.681308626579,430.486308621777,415.152390525158,435.232559545419,408.82485432741,433.804814539099,453.779798613559,457.413319108697,475.100877757999,427.803436840987,446.890055780904,452.393898367365,469.682781034995,450.398294262823,405.652247784133,418.089297707429,446.655651259989,450.57783027772,460.561453692081,476.102746299633,455.446205055719,426.04293795375,476.162648591664,458.934291362199,479.33204588136,458.353343728408,451.772065680305,453.674584576052,402.582355199205,436.686613773108,491.204440038012,368.483973559479,503.826520739259,449.863681117433,469.157825824208,472.864256110739,499.788970527748,455.906877381042,478.443632458881,418.951086235186,433.198079129907,445.336764615241,508.160622830317,475.463873225815,495.152642832234,440.771016793531,467.3227709063,478.84595580588,445.797778121686,424.829186426851,456.549608213433,461.5688939031,424.981896336266,472.595625850325,476.429784945148,462.70005579113,456.75966962909,374.7689248975,478.531184486135,472.722066544461,431.72357244933,432.400456887383,422.244398527488,437.264050852933,432.156996337375,437.922228848507,452.488298943106,459.282544324186,443.421575638559,469.33679366051,521.688002143062,524.028923879327,440.671533837407,448.62854783115,444.905713056905,272.175135070212,333.773232252452,311.57057887012,416.526174401911,441.480474391132,442.843230082331,421.208338480801,428.647940978753,461.144338662475,473.574177530242,446.068341250162,534.246995734857
,84,368.890409519501,393.532831134126,431.279353335884,423.556850044807,419.205552904185,389.626211429344,386.208094897113,435.733527799842,438.214553331276,303.274834051038,445.650008617197,420.175359292797,436.686633990375,408.252369595067,431.65059026673,457.923326030978,459.172314277493,477.953276700342,435.749608391438,451.88607276011,459.055575805863,489.332913550908,470.429150122504,460.3228612474,417.13039943812,445.914644154737,451.198484713858,461.277850847701,474.546364405305,456.042028652821,436.268403431646,484.130849891556,469.764810046263,489.05880177674,464.559387645691,462.358636182841,454.343970507443,404.953437359834,437.309780955734,497.53889833382,399.163077159551,510.916906078519,456.520325591583,475.118209299003,482.815149401366,517.374184757452,468.09122352662,490.872915872489,421.592574147774,432.043117923813,448.635082534807,509.384937683138,477.580276895973,500.589688206026,446.249813584074,473.471301623969,482.983699337305,462.822085896577,437.65828909631,471.621603838707,462.702791488709,428.426466504966,475.981899934536,476.864223337564,466.136809161637,459.670760812005,381.857636377395,484.379778112362,476.706121506259,434.988112913801,433.751089569164,424.958323179629,437.321962259228,435.547586857542,441.452078269609,459.454398334788,470.077733936451,452.611131577659,474.25464755415,526.05880987271,532.056543740082,445.109277561521,455.876845328712,449.157900408763,267.342981666834,306.57061860349,304.234960604246,419.85375133324,447.627105295154,445.637499623623,428.576437225376,430.601307440531,466.065617815644,484.786886032945,458.733962557951,550.948755396933
,84.5,364.832933457468,393.7166338959,430.481805872791,428.909195914329,424.519503896365,391.925722003321,391.249603658869,441.91765135209,441.933174864359,312.690238969681,465.625193671491,421.89076945475,439.751678712696,411.042402326726,434.87417829788,463.999201876336,465.467240956655,484.057400422067,443.220839876188,459.761006347112,466.691759877599,514.909303069395,496.331818959545,501.834077750585,420.389426614277,449.299508839525,455.018537755334,464.042016451403,475.424599960528,457.338217054514,452.831405836985,501.97649781775,487.555316794097,498.147848681672,475.300698313782,473.19236536071,458.217250936385,409.257638352741,442.584764175221,507.001827306606,436.553732625576,519.026321138748,466.937229585211,482.391352436697,493.80079642681,535.924230253665,482.613992534268,505.694398835291,428.923203944885,435.952829155785,455.014545684307,514.6229292224,485.082878682654,509.573047337922,456.333981343007,483.126881989606,490.288138243685,495.403170920117,465.409696806903,504.937942762182,470.40487457005,437.109635909194,482.113179790436,482.146295119416,474.716501923086,465.371384266754,389.050768152448,496.399597272502,483.836334245216,440.686686663395,436.25894403828,432.699188369805,441.346400327644,444.228433439901,452.308069360003,473.570699307676,486.494122345579,469.171589333369,481.119557859359,533.912198890685,540.870756207541,452.784348463094,463.100078420943,455.611702742056,263.585631132194,270.171658009646,301.035369627146,425.090762610131,452.592156981802,449.753990408942,435.313688364987,433.911506597076,473.969160389332,497.043444232225,475.071471510797,572.439570628726
,85,360.298356456868,397.248325307994,436.608396953776,433.706534423781,428.819328183386,394.66091312166,398.038104169421,451.60138576738,452.861621701161,324.365007144447,485.899092357867,411.125228547254,445.982373513099,416.874094079426,442.707973566621,472.133195197967,475.482336278245,493.48124000737,452.73143811779,471.319669089211,479.741427804213,543.118037663365,525.335437280745,528.28377118045,429.728320621751,457.315998607735,461.538372476501,468.415498304624,477.172238387751,459.133299839236,481.20807870882,529.332406941911,516.150533737716,511.95404352952,488.492855482891,487.961961704003,469.442780886555,417.127844258069,451.61631146977,521.620830600037,475.459931918278,531.393319557871,479.057560861151,493.241282534547,508.473283983003,555.696974601827,504.124637006717,530.013027522662,442.878586633112,446.650445496311,464.743560490556,525.441859379512,498.417471597076,522.079970908453,470.040517777565,494.285796498918,499.826112887955,540.07755622888,508.749269225018,553.38756604058,484.180120271328,452.848285191632,496.075415232666,493.523361378159,487.343744210864,474.374350034177,399.246771299926,510.220142576723,499.152993063435,448.97163729892,441.930847710669,442.095495302367,452.921351800734,459.946287151148,471.834149691094,493.968400876701,510.394529286451,491.426431715701,493.458870439933,544.740970641295,553.845075291638,462.732298462871,471.010732233286,466.442824193875,258.324730444023,238.621656746663,303.804888951,432.140319096668,458.752472545741,455.45572866798,442.885915788633,441.285613388807,484.593135225434,513.021962611106,494.520662106281,596.149240875026
,85.5,351.498418239803,405.725064187254,450.191088743812,442.348122662622,435.913854384711,399.047488756021,406.239095627221,466.605248858326,468.332532832744,336.544947366368,505.510030044437,396.723397308678,460.372623663796,428.173323023551,456.942283511172,483.429623340116,487.204589495367,503.884981247335,469.025400401869,487.547499489973,498.809828687594,569.509277521763,553.925566037826,557.256254832128,445.236853728247,473.428631343613,476.444251019718,474.326528200449,481.945908976568,464.459390694878,518.398217422348,562.288229405579,553.770982640845,534.948088404458,507.944560437225,505.335912531903,489.825504593502,432.79631590009,468.669854436812,542.246109101017,520.802316115199,553.25650866169,494.660870619033,511.798278118787,528.74730707959,584.865541438812,531.584114258808,557.628947876433,463.786725285979,464.334394314616,484.140611509221,541.99156619922,514.177790438146,539.629602168612,487.151338203115,512.508034079864,514.344651091497,586.493420640636,557.018761672741,607.880452807896,505.033439579128,478.120981841684,521.128479453435,509.422797241114,501.9144056328,488.479277917674,416.367472390785,527.789252983799,517.707626799225,457.942546747952,449.888638084315,453.15074027061,476.41058698604,485.442076703249,498.708661306464,516.625721674705,537.005413987592,516.666202001668,509.296478235936,561.01501184379,572.472525268041,473.067392396168,482.54807110259,478.941641295536,253.48497721009,210.401611913077,315.718991554313,441.108753784367,466.766167984975,463.858716860899,453.912439766063,449.641717044572,495.61341532598,532.895047894978,516.191623559414,621.304393527194
,86,339.265158371052,423.071048200047,468.941046608314,454.179041672532,448.55751338748,405.872394584774,419.890108816093,481.596486800476,483.498024022828,345.488746801103,525.873681642658,389.75284571131,484.627219498937,450.812644576974,481.272119919044,499.370041216245,502.202688491059,518.585811592045,489.027222433986,509.780615571648,523.623590384141,594.353125514343,578.391690083806,585.727247628096,470.935027286944,499.430583821909,502.320777157777,482.628208882013,493.485177498979,474.377587805436,562.709202227505,605.38434021531,597.982467412412,560.926767103439,533.589539361554,523.460203051902,522.201740514174,457.553073662154,498.171462405601,570.074379301533,566.941549012149,584.922619245745,521.760415961325,540.778840726774,557.168462514725,623.567255541142,566.657441493739,589.447340346514,495.01555231224,495.610181386215,516.854278284835,565.359567754569,534.921062000034,561.384038382775,510.7655375931,536.823421745526,537.422764297074,630.402840018028,603.866633530217,662.920861806909,541.445113341777,517.826098860268,560.782535278995,531.627049489479,525.031668030346,509.322738348917,439.135551872395,554.459012275502,542.135876067324,469.252518855741,460.444439056619,466.882849675094,515.35867809138,526.489943368799,539.83160999916,541.942164529356,564.215317478063,541.905018309083,534.282768467937,588.318114148942,599.578122423573,487.248826928687,497.388360992823,494.611556859539,255.959298426103,195.426779131163,339.480905351214,452.545269193166,478.032247478342,477.85898309002,470.1740286856,459.902092816963,508.046138246768,556.667788398197,542.778661818573,649.284532043248
,86.5,340.363465318349,453.917503444318,501.278882820983,469.240964083713,464.219822710376,417.79151283115,435.875471806778,499.005864385341,503.554210679185,356.347903605111,545.31158357367,390.252016873799,521.143505388592,485.480027049278,517.510917237252,521.817623166856,523.933634483023,543.783811406228,517.710232110721,541.38813461347,554.30868760809,635.185502345089,617.920860010473,629.627729326284,510.815537880027,538.229605118267,540.659860149026,495.231016153404,510.237022678058,488.758170697919,623.41338319071,667.900437172388,660.778965243326,593.061411698728,565.664218847444,549.255639605934,574.470744516289,493.462709077087,541.931329649301,607.148610717897,611.282880065853,625.186601272347,572.465386588252,592.049907341062,610.696195550263,676.438897324883,617.279200073284,639.18652831305,540.346285682816,544.087124423536,567.162814974744,595.358114494235,561.445911604213,585.977185968822,537.506312225885,561.419290793626,564.687509685833,665.219118853656,646.100457578935,709.00707557137,598.647450536861,572.598640569926,622.056190926661,562.361543883274,556.196995882081,538.652394796319,470.368945555331,590.66843829475,579.41105567543,485.077393097758,475.086864750714,481.879822893201,572.121444249195,587.171144254143,599.709756250374,570.415715837379,593.146090914114,568.431073593244,576.051204230726,631.399606035881,641.71582013028,504.789649906285,513.929362998706,517.548539764605,265.544067275161,202.152837670022,376.458140745102,468.656803472045,494.565562490266,495.642986030015,501.740778594471,478.742091067942,527.861485499273,593.946062840189,581.901849594205,686.432793595329
,87,364.333368250266,498.681451037401,551.61170348241,500.776011490171,491.716707325347,446.338129685851,466.022879731064,534.926477147865,543.694902121967,378.955639390344,576.492335590377,417.172929260621,576.843373678176,535.205653853075,569.107101274505,568.93511615148,565.103658842319,594.756266294029,579.55436135736,598.679318910828,609.513750547333,717.829664518138,698.335261446191,711.847353802299,569.010237248908,594.118657915892,598.477939669767,518.600218035223,536.180536579555,512.67717035762,711.202711049083,760.885933236631,756.977654925274,655.959968691272,623.232655859794,600.513152095954,651.23050430799,546.872671495543,604.752503217983,673.172912279153,677.693938267069,692.732365232285,656.882090941541,687.359615024689,710.182675501065,778.374567684935,712.643475180419,731.790221889215,606.196566205901,612.792121833616,640.805283211288,644.866690923818,605.67174963185,630.898612750882,580.737731572524,602.51140223851,609.348337048773,690.783848619764,678.434262379735,741.782062916121,678.72589736837,648.428376153463,710.798281464792,614.965496408527,607.651940783568,589.556937602664,537.62085343866,653.677865260901,644.891928456035,519.376208143703,509.534030926,514.460844061755,656.636277684507,672.925167651735,683.294394457481,614.185033690087,639.880450230946,614.147640168359,655.764109917732,711.004913582655,724.141466617917,537.189310234666,548.712719171162,556.959945304019,295.619746168306,224.778909671995,429.353660778584,504.76108205816,530.391414933562,532.672437226469,577.101350530351,525.391764070829,582.018018388255,670.455764207455,658.900309694016,767.34190180257
,87.5,408.377946498625,556.177978041666,612.310548004018,568.463890457562,557.423264351358,510.381508950049,543.632316235274,614.741024315567,624.777645502179,425.078450051508,640.22085701783,508.365064162544,648.916790520254,600.574054436123,638.989300363035,657.724190724883,648.727671459153,689.282370363203,679.33300686806,707.618785637602,716.439770781468,861.828515705356,837.51597335485,847.283902195626,643.513402222469,671.636586304646,676.95362031351,557.652569653458,582.327213929726,552.240823235441,837.687855974292,893.913146219078,894.539391493838,777.382317947277,736.660605261093,697.228682813279,750.210249027869,624.799370433915,689.90297964654,797.34855194342,800.233026822665,818.536074803963,796.066243499833,840.385654645845,867.028772811335,967.298946813876,884.946916394162,894.803934097806,698.655344835937,707.127463371792,740.019133172084,759.558066412598,708.368373402316,738.153071214861,688.097987308327,693.539806090336,711.002992934708,724.207372028963,711.644345253118,774.453783931499,781.456103768634,753.231395094087,823.30870418689,713.599963432866,705.923416569234,684.346134279836,665.202324862049,778.662205381687,771.891372714825,605.420486541024,592.374252323512,590.598015087911,767.486502419053,783.447565367404,795.056959033344,701.393028951925,731.928965989882,706.264327472761,807.989266507339,859.768029898815,880.602913283694,610.747870959294,626.623723121641,630.709814590547,350.904776260012,252.900896674343,489.144332402161,586.83212172245,613.202958093495,618.327240773246,700.100751732792,613.579163904801,686.878391921353,809.721708114887,799.281211817733,916.514199608477
,88,498.861119970642,635.950293742808,696.997690941992,698.54470123289,688.283885933831,632.89336677098,681.91484664482,762.575506444654,772.151662846645,509.532309585616,767.160285010418,682.774157250072,753.356825057785,698.242635787356,745.810089178026,798.245345605991,786.128400890622,839.722154018469,808.598034192253,862.109746677251,867.369235372719,1075.91576498258,1042.4367832975,1052.85230747169,754.83797970055,793.241809579674,798.354551113751,621.517100703053,657.744849377899,617.793880589094,1018.04263789642,1080.27116200373,1085.82303812567,982.076297157018,929.852953692918,867.251346643666,885.610171313817,752.172196913572,820.083393528965,1004.13003007279,1004.10261196953,1031.94477597902,1010.43232814972,1061.56371181515,1096.48927674333,1245.32664179983,1142.82573239696,1140.02045553788,839.74368432021,849.004443922412,883.644296878656,1003.75301872964,933.112936453712,967.957312306727,920.055421633009,885.459957768358,922.40131624176,780.53833046874,762.170769522984,825.303546801813,921.177249952076,904.086319477973,966.906953874051,873.897833672003,870.345970340931,840.847693537848,868.234587892149,985.744571305964,985.142020138532,750.422821252904,729.682346088764,716.767558185471,905.001488530795,924.371206829435,951.798676558123,846.400024388049,883.437277653523,854.268288070082,1042.94060301314,1087.33899022111,1116.32903406428,759.43575114122,777.539352695438,769.647579428415,408.336381094695,279.093297149721,540.178724739621,728.428024845311,756.986166909419,764.261354755721,881.089318780181,745.436216966424,840.481509953926,1014.74385291785,1007.48662919131,1150.04445240216
,88.5,710.676381836682,804.469458517074,877.958831339248,907.09583360759,890.384197479699,822.212781209777,874.998021682589,983.280311736238,995.515813074889,648.808683912678,992.339150224146,960.253035605458,968.692279832173,906.335452869574,970.199098517577,1004.09112546638,985.139881159501,1054.26493947199,995.563872325293,1055.2175154285,1053.84524392932,1338.39942424928,1299.80921821553,1314.65645489941,972.568552304076,1036.65622108894,1043.23973213853,733.906720532958,785.700541305524,727.43276156297,1244.91156101774,1315.7320432371,1327.5223233941,1278.6830179285,1208.22017251853,1124.42352619716,1107.73597322243,999.332581164689,1068.53142421238,1295.31099778857,1292.57903875742,1336.61626908908,1281.89619079733,1345.20519472805,1391.92583324434,1588.06888323249,1463.40905076654,1452.88533138753,1081.87485229946,1095.55676736849,1134.66633636723,1433.76880476284,1339.78851556835,1388.59561435782,1321.4633991403,1255.74837344915,1315.77153551791,868.232950319303,840.997529107396,906.461413195835,1150.89117326495,1146.40523268989,1194.31414812238,1104.92978507512,1109.76302059442,1072.40770579346,1166.35310798235,1277.70714296915,1286.55012339571,966.539248632614,940.055259980322,907.760759539341,1105.36354362345,1131.31086241506,1194.06151620047,1042.730998899,1090.11959840006,1054.25157948174,1342.19051782823,1379.86646396156,1418.67805639723,1042.12693444834,1068.86381942146,1047.54665323307,456.731310589655,307.668302868051,587.387654118329,943.757218995724,973.776611979587,983.055606507294,1153.44261788584,951.439953215055,1077.6035076096,1271.54073648752,1270.35689487471,1450.90870234014
,89,1154.79855083629,1167.38331389924,1285.26560042639,1219.02303612646,1191.68298443558,1107.41191277483,1128.44074263473,1266.80223153525,1283.51376259772,840.772682951497,1310.56068622783,1334.3413083045,1398.78429700035,1316.56394988091,1409.58660208317,1322.90244533541,1287.31756865109,1382.59042031361,1286.97117872085,1315.4299105665,1320.08625327311,1604.07571157045,1562.15261253924,1577.88642649492,1388.2520351173,1490.71503411557,1494.91804761309,901.193438848897,970.451067453237,895.864075519173,1501.65310763579,1576.69659817322,1596.47523151811,1662.35718613054,1567.70103841969,1455.59706938938,1479.11595749855,1424.85943330622,1507.38722873455,1636.80676422769,1635.76325861783,1696.36980011257,1599.38555636322,1674.07177091428,1730.03720696614,1969.42050668954,1819.37921586204,1815.99775532951,1475.40197843444,1496.4581738742,1540.69667037317,1957.32931565491,1841.36329450039,1912.79178483948,1805.96545820918,1735.20839861305,1814.78629146961,1012.83536356635,970.04168481238,1037.81050260912,1523.28139437264,1502.50466607784,1534.81937749327,1449.15988974562,1462.50467648915,1415.72253767314,1537.57326720031,1687.50282419039,1702.99520578884,1285.76322420987,1255.58440208522,1196.05495721224,1399.34425551919,1420.31784334898,1526.75762599689,1301.84905671995,1360.44623594572,1313.96464360196,1694.26134499005,1724.74075953008,1776.47295610683,1444.284682002,1491.57565164939,1460.29628456747,509.970042826498,343.925386991933,638.669271987964,1267.65869476899,1303.81111401774,1318.97245112093,1500.74376872513,1248.65508844716,1418.84309466652,1552.48890317974,1561.45282692548,1774.45440027654
,89.5,1735.30847629424,1634.79761834407,1828.60228103107,1641.20605085549,1603.92992244581,1485.76751243254,1441.11543512245,1601.38564331282,1622.63560105066,1071.12977633684,1681.87433506882,1758.17838529454,1929.02946684334,1811.92798396862,1945.43143694952,1739.38406857943,1696.65863376495,1798.33007024301,1609.08950265443,1634.00476035309,1649.32860004021,1849.51419054086,1801.61085874897,1813.08641969751,1894.50363222357,2029.32250134143,2025.28595039125,1187.74746128897,1263.79349487112,1195.10779317021,1749.36650827921,1819.40718094505,1843.85924413093,2052.80722861697,1932.42258921649,1804.31921904035,1894.68842636528,1908.35579927427,2011.18252804052,1965.23551545039,1973.88226298669,2047.6843947892,1913.90914520812,1992.56240207187,2051.3992247989,2278.18573789166,2105.57101348425,2127.9520550498,1908.15091753489,1935.19420233339,1979.29436208299,2425.1266779509,2294.40288168584,2386.9744417836,2246.37207439054,2178.0210810461,2269.81651678847,1220.30211789705,1158.3266121262,1230.84704677105,1924.91826364901,1859.64726748998,1872.27656300569,1860.38744060777,1891.07719671829,1825.91794324153,1864.19951926787,2117.91582504734,2132.98487160959,1675.61233960016,1641.2383016742,1549.96149738943,1686.96184732616,1692.53650552598,1840.03935689333,1588.71792400147,1660.79111173579,1594.40163798126,2010.77982008597,2040.72387298548,2098.96316880712,1880.22999499392,1954.69048778074,1919.47627404081,533.600624773516,366.108087249667,662.917796711027,1670.43462646862,1722.91553601131,1745.29072969219,1812.44459667359,1580.8974592556,1796.59083766696,1796.7895929991,1821.32023173714,2050.5215931333
,90,2274.05007598877,2058.61634665236,2332.51310313366,2063.04541738681,2007.57850217118,1841.12540894933,1740.21945419012,1934.19395278139,1961.43969402325,1291.34123783185,2035.64585305726,2162.44942429875,2398.04401407797,2247.15636540128,2418.23927468972,2120.88462317509,2083.31761638612,2160.65548765234,1868.0992916056,1909.41870638075,1930.12162498612,2026.89196761616,1977.89876634353,1995.20207885164,2337.4920705801,2492.16996383119,2481.16576508078,1629.5539490948,1691.66781917571,1645.59373786763,1917.23483555377,1985.81338374579,2007.74940768124,2316.70396880798,2180.05484031072,2067.32415025612,2224.71501929425,2312.35832165273,2434.23209881918,2189.02055078939,2212.24995021198,2297.95059728235,2118.72982035369,2206.71545819412,2262.5624414913,2386.02903186849,2205.11951255785,2264.41102760327,2250.16548827237,2283.06905868477,2325.80109434551,2739.83694149472,2608.48343012858,2719.34954178164,2551.09299334172,2511.31775403483,2602.76822311278,1452.88023053712,1379.72276761739,1465.13198285958,2237.09082599632,2116.65591369595,2114.43544230134,2191.66662073799,2248.2780009477,2164.50196100471,2049.13253234811,2403.93477910051,2412.30498990405,2048.71461602229,2020.07000549837,1916.7833976848,1880.15091608375,1870.81295424034,2050.00273561576,1806.07476918337,1893.87176893557,1803.16669852596,2171.48366731836,2211.99244943194,2266.77741391734,2261.43559443263,2366.46037204236,2344.20328005678,502.797312672342,365.877548046951,648.311663136206,2022.7783394076,2097.96898949335,2123.59520315855,2031.40187687862,1864.92550950331,2112.94910518019,1929.48144131038,1973.76652244809,2204.13428850177
,90.5,2719.68169878901,2408.01978906369,2754.46060891884,2344.65524310035,2267.1955658764,2064.06328750436,1932.92249092664,2150.89149956779,2184.87958980683,1436.06535202307,2259.77217526606,2434.55249758025,2761.99035662664,2584.53512688536,2781.69503818231,2377.82943409208,2343.25997138403,2396.99954324355,2052.67746864377,2082.29455473683,2112.44152371139,2067.64293567026,2021.80139608491,2049.7685166332,2668.55036607846,2829.06938904146,2812.70657793474,2080.30037048411,2114.57200848194,2094.82864774288,1951.81918983223,2024.80928393302,2039.89060565594,2379.39764375495,2240.1888857458,2158.2594216049,2438.6265512259,2581.36544819579,2726.24382914082,2217.52649252605,2258.10750799658,2342.75116383622,2151.61389357602,2251.03148404451,2296.31109490319,2270.57731063193,2097.16597913345,2202.06856541537,2457.08150594302,2495.44139015926,2539.14332747394,2768.61016724828,2656.3927612851,2777.82514824393,2588.11567980167,2618.95912014732,2693.64056970802,1656.84883412638,1583.77034320395,1681.42616076094,2429.940181535,2236.83981597462,2242.68238709982,2369.59061440942,2448.05513766907,2352.26433139921,2054.04244209113,2494.95178975455,2492.41381049523,2328.57723053031,2318.08750038103,2221.83981261774,1969.58100538145,1940.56190451858,2125.61948800362,1908.28094373664,2001.04618769432,1898.07774962276,2146.87285385172,2198.54656440635,2245.83390231077,2478.50718293475,2613.78053146884,2626.29866034505,457.256701587441,356.858374689608,618.533528058948,2239.35254275216,2336.80775565921,2364.0900748291,2138.65833137366,2060.93657467663,2325.91145824125,1912.58994320319,1975.38455753696,2174.002074494
,91,2929.77045402392,2540.42394651142,2945.04192694083,2444.21008561137,2352.69914770475,2128.80104481523,1988.93008660451,2195.48807215128,2232.63925552124,1468.88794316921,2261.0831953245,2467.32984617624,2858.49657016589,2655.12552751917,2864.72984280542,2475.50913205213,2450.73488533029,2479.84078543307,2094.43040235343,2144.99800025344,2186.52058071003,1974.21048432115,1930.91750859545,1959.58376714347,2739.33567298304,2871.84035851371,2848.88891943386,2404.24227183303,2396.36950315311,2423.40395781328,1848.64801753841,1922.20702423712,1929.52414444023,2227.56424546734,2098.67733447871,2051.65350155845,2419.64579195936,2565.25705835395,2728.82825980253,2033.37958384992,2089.57683600096,2156.74152991279,2023.89136922914,2119.55539303043,2151.16536871955,1964.07517624841,1808.04754838339,1955.35383065473,2409.4041800168,2441.68248308566,2480.65775684003,2389.07190425839,2309.20555470084,2422.39592861484,2257.25011219888,2335.22922114293,2384.28407451151,1783.5962865477,1722.96090928881,1818.47868792111,2378.9574333495,2109.7286091315,2134.96304142531,2368.48413055159,2459.61993667621,2355.85729631817,1832.37817204456,2369.55223215932,2352.26850621063,2436.29993893937,2444.49185824138,2369.42544506352,1869.41977397878,1811.28569853912,1964.89517584534,1905.72358113524,1979.40643546971,1882.4634820271,1949.80655788495,2006.14280918629,2041.46169956529,2398.57714825904,2548.82970916307,2599.15549985649,407.48285031513,327.483040425676,553.947377460411,2284.06268683122,2400.09544784102,2428.45493008002,2043.39270629219,2101.93376249123,2358.90313350663,1753.43780597294,1827.31762622924,1971.64446040794
,91.5,2627.45193002139,2228.22196553002,2623.54094963502,2304.8777133683,2207.31809942295,1972.16226023649,1898.73158426739,2081.11110136849,2117.10591604953,1381.92755464441,2046.17173638353,2265.55253838706,2466.11429917578,2266.50677799985,2458.47724818498,2304.66155452682,2309.04680626013,2286.35796506925,1875.72996025232,2022.25528071876,2057.00566651189,1782.50988416679,1743.84115707502,1777.6622710615,2352.47622448659,2432.26281988096,2407.69201785134,2588.41109705136,2531.26753188253,2604.38851178414,1601.05398148198,1680.55386612017,1674.84860065706,1854.68774245091,1753.22317398712,1756.53454825632,2019.58813551955,2136.82209293227,2285.23013741586,1695.75036130209,1759.0980317508,1806.41162706905,1716.46898571771,1804.5733805442,1819.75823328967,1494.82531228205,1369.62748321874,1526.39078713517,1990.97686329414,2008.83307843717,2035.40985507604,1781.56924526368,1733.16675680212,1823.10822840677,1727.75234501714,1800.78598631952,1828.93774533525,1775.46899230227,1742.82341414572,1828.78053680943,1959.0901376652,1681.72233597316,1711.8622710876,2094.66251935243,2193.33161333623,2089.61556487667,1415.24991263716,1954.14927355961,1924.54542751831,2306.37009565919,2332.97554461288,2299.09320882303,1503.93402140659,1433.37037857599,1539.76032067689,1754.58409984992,1796.20286106744,1718.0085025686,1581.84283896085,1638.29026807472,1655.98580756197,2048.32927257376,2190.63706055313,2263.54956644634,321.395236832529,260.577454423187,427.25568000339,2078.51361915188,2201.8648511573,2224.96237793202,1730.47783044072,1926.21952264316,2143.69769133518,1475.75363892881,1553.25812590901,1656.530601232
,92,1970.66004717452,1645.70314845248,1957.77284861263,1875.086399995,1781.82386967336,1569.31225087741,1626.09559410106,1787.07877439543,1818.96406472972,1172.34974773795,1659.29275945548,1879.05450889638,1795.81093055573,1639.29320953661,1786.00570866143,1840.67199383114,1864.12002014245,1814.010283615,1475.26749460744,1676.34693512073,1696.81085504934,1469.32279711084,1440.58038217447,1493.502121698,1706.66618014708,1745.41200393581,1726.20032104416,2482.31711816113,2396.4129405105,2474.95963422803,1245.88084579022,1327.93512558083,1314.50475814708,1357.82792348375,1294.10605897245,1334.39832892535,1430.07063401502,1517.31808440166,1625.72528424232,1270.20984203398,1330.54826339941,1358.57790147469,1286.73637419436,1356.00951874826,1357.75685215684,990.10523386259,903.472471642516,1039.93555263283,1401.0644339372,1409.31511421261,1426.50245278571,1193.95521359861,1168.47369965177,1233.33196680387,1205.15773303555,1261.43012161365,1276.67699633998,1594.24590578283,1598.88900598917,1670.63224004639,1375.09316205279,1153.31367945322,1180.8269804907,1593.86552546059,1681.63466889929,1596.09832792609,959.273528696995,1381.82291979469,1351.37138225986,1956.59130228439,2001.83907235261,2022.21624136131,1038.67574707765,979.544565098712,1043.13651145289,1458.25950094073,1457.38998960894,1415.07467001646,1143.23090197623,1186.44380191794,1189.50049851854,1556.01364600169,1673.34488280052,1757.64161647949,223.105956559249,184.247297045578,290.111145574042,1636.36252108706,1745.88485834771,1759.57195384296,1340.09352594556,1572.7359624673,1728.83203755347,1123.69466173653,1195.10432817123,1262.95195771364
,92.5,1320.9757957607,1087.61428563256,1304.99930009181,1317.3467783422,1243.51315555541,1086.37261328265,1213.61440776526,1336.02575507811,1361.05513494407,894.988701932301,1177.57799546023,1367.03171590945,1165.24965642953,1055.11626941001,1154.77206721834,1290.85887106013,1310.85922744623,1282.53884088949,1058.11559927983,1232.3948091083,1247.99751492215,1071.7435162839,1053.13666743546,1114.25259119293,1101.61611788704,1111.74558984036,1098.51259845207,1994.89499062645,1908.99586799446,1973.3261868799,880.737348500611,948.042584186136,937.215364452193,902.11139671986,871.478421247228,915.640641084347,903.162805353968,951.767885767998,1025.01463037987,842.871302941822,891.805506176586,899.865925090231,883.568855675092,910.914087433062,908.662718547849,589.343886227132,535.945238577599,641.926257459746,873.65401762062,875.634424939627,886.596184180505,675.58342161448,664.791476419593,705.08581265822,729.760975607227,759.080368823384,766.349080767533,1279.55716807666,1313.82828567029,1355.14824923007,859.59353128355,696.7101861741,723.072097814371,1081.24367395987,1141.46183947691,1081.82026423645,576.014824861822,874.984638108203,852.191130034165,1463.18189880406,1514.10459834176,1563.54455448713,640.277795543674,594.082058170404,619.812844295256,1129.51173732011,1074.99618884283,1078.38735672474,764.006461758559,778.472769314912,773.876807231007,1023.7371279224,1105.65177772693,1182.98553742657,152.782016266289,123.357289521108,183.869442733583,1133.21081090272,1212.37995353214,1221.52056612001,966.970334349568,1162.91286716268,1256.45083924613,772.659748543939,827.639845165892,865.381690404848
,93,723.299392317851,576.905535258714,704.938086616528,822.512329894746,773.626543212527,668.809728318332,806.352800796527,876.934439773338,895.661864485109,637.049884433346,738.940191081059,876.141544014139,599.270987808647,530.368847792707,589.581171054507,806.059018819678,824.984799162444,809.272517077318,664.691871009229,815.854137819588,823.719413659307,709.68896271663,700.273448424858,749.35145161281,564.984283324597,553.052245778385,544.671142405891,1390.69507151384,1317.05158865465,1369.27992573097,569.855670683545,613.347200457465,604.785987364789,552.350525681302,547.670430332755,588.466120017001,447.989620019796,464.285736916429,501.978305957715,506.572376831507,539.232487591462,535.212964733943,568.405623100221,554.073521246218,552.036395963157,309.56568082879,280.755307975454,349.744917388806,425.761566414235,422.337709669157,426.000255990226,301.566692747122,295.727055321724,315.883062295177,382.483660054518,365.764021351713,371.757640041052,924.047419411634,974.646363716434,980.316189416176,418.014059497818,321.328861253352,336.927625286683,652.929856631917,686.984241924217,650.210444736068,286.895512189409,470.319859646874,455.041369700863,959.879167790908,1003.81364102567,1051.88009515895,307.659488913481,276.538857830021,277.336132301054,827.644103032498,732.393984102753,769.720820847405,474.959233606882,460.789592228169,452.354913812107,569.292922041865,614.949048262743,666.745853694142,94.9146552267465,70.2319493448733,94.1170882934058,694.947065155682,741.694644625874,748.304237077185,614.917677045923,776.087243032703,817.896621290908,486.126452721343,521.865482145196,545.962206834638
,93.5,245.220335875206,184.009515329204,231.050705654799,425.804995120537,397.630656429176,336.795818907735,472.601447929134,511.491314381681,523.037523749082,418.181337898994,417.179216198717,513.557806774549,179.714526579858,149.87863723162,176.957192362377,402.459950402023,419.956217062477,409.57403124332,341.674402867141,456.97512592705,455.416207725118,423.315650765461,421.128088612175,464.103300603664,171.455822037154,155.752991897739,152.091454267941,864.439930288931,811.31423723107,839.506611848372,331.328846317278,348.371351395033,341.226262277545,312.177721595486,324.649163099454,358.750780142927,124.404316917387,130.420223473692,138.214187062142,283.754239873373,300.709887906665,294.483520046569,338.517090286592,295.793704654744,294.353300085327,139.96288532848,129.376000620447,161.733002652997,119.322623695279,116.35493092687,115.68588423688,136.533483201972,129.894032249492,140.190135510713,218.832192137566,172.609415492118,178.887832017207,596.231058451055,646.957715507807,638.926671217675,113.852412757625,86.0033669422962,86.2747711178074,321.08580998617,334.305114413486,317.421020513485,119.016476418267,184.965702982269,177.91525844148,554.803109734771,588.040020937533,632.274723375806,86.8676817799462,74.7447111361626,69.0404800575287,541.839281419434,443.882274563805,489.085236431646,278.663162293125,243.901686298038,233.637124021852,268.112406070627,288.332287306562,316.516919476801,45.4762143013788,32.3644564293282,32.6905243840317,348.597287451145,366.385941046487,369.632487925231,348.674822461638,444.781594174403,452.256118767841,280.293639574412,299.16426894227,320.026028205646
,94,37.2944020088553,29.7548323218425,30.8095170976497,164.699457553642,153.395691784059,129.730274162828,231.345317127532,250.898337120563,257.926078762083,279.860063716971,220.812051905971,285.888039715874,21.5462026975001,15.0735702199825,25.9936642517345,155.379203854511,159.948917546128,176.015817347539,174.87929019221,217.393652419052,215.705990423685,219.828246524723,222.501219218361,259.433600498896,23.2606449336206,16.4372856161503,15.9553172372699,431.05041228361,402.355063769605,405.83650074983,195.738181348455,189.756925988763,188.228738267935,201.689179522537,221.506400176186,240.783419823736,12.2628922260534,18.6056667422406,15.0016706980325,160.190904768247,166.764897103156,159.424816512848,222.022061066497,154.291039081745,156.187795619921,75.9651093184882,74.3639262538966,87.7387193200831,15.9809534703422,17.9731528653012,18.2206411387994,105.051228156667,95.9460349170222,104.032239872587,173.371897467022,123.42252522912,130.219857053307,369.728946236434,416.833534195983,395.497189778942,15.1645948834873,19.5892505354913,14.9554277875333,143.822557423993,140.072435605886,137.077984378098,65.0555945504941,63.8505996087117,64.4942714023869,284.662051957755,308.586284325804,337.487135181331,17.7774705372601,18.0153191013062,13.7282617449227,370.994405648939,266.084069945613,320.872651174949,187.657187953481,136.688293330261,127.641287866963,119.568525530783,124.723698283119,135.877109488091,21.4970253445194,19.2625418077818,15.4355014944392,143.285370873466,138.572437491141,142.11341293852,233.556687240434,257.48988047727,246.660353082522,157.308782353634,163.95512148165,178.322417655712
,94.5,23.3582076398015,22.9705528698278,18.0018132748695,60.0801821477734,57.9128366079894,56.2191878521537,80.9120576570858,81.1551341803828,81.6917866682774,190.32322723398,119.688611882508,166.13236656205,20.7520935505318,14.0615586249439,26.5544779063479,63.881678964932,64.1275860570985,85.8736430535167,109.940374748127,96.782921797216,96.8967242976447,98.4996846114915,101.935463124951,125.846056071003,23.8265345630559,21.5549565068163,20.3179106197259,141.092515804791,128.522341054959,124.765973421399,130.900440371036,96.7917034258469,95.4532007043931,175.478203397869,195.793327798844,203.88864901165,17.9408682565305,18.2162686285999,21.8626098057923,97.6410610560795,97.2112713207135,90.919436505942,194.574479949929,110.54703301446,116.062418222629,66.1202304328442,67.7658087991751,73.9429473447454,21.0396134344887,24.9630829791852,26.0948737440791,77.6730165512248,71.5532650909636,80.4642476517399,134.957353475133,88.4923372915006,87.9500409742914,218.221042055795,244.380075239276,228.207041318436,23.3370799580605,29.0352159655794,25.1010557074843,99.0658470562827,88.4438331631636,89.6039787384044,54.6810172002708,43.6023062239803,45.3204752453371,139.76096624823,149.133899079143,157.552921743773,26.6257028331481,24.8612974156424,19.8320768321419,241.340494039799,164.043079409417,199.322630842245,161.723512013186,101.437733239162,91.917862889029,50.8165962412329,53.7968280112631,57.0315535054771,19.6232543950796,21.1086405963664,19.7637224671432,70.1553406256031,52.5923046932073,57.618142392784,151.917930258767,142.480076325754,131.213159820397,99.4853205530151,94.8910678521951,103.212837473693
,95,9.44827279079072,7.4657864804476,6.08178824248569,16.9489773801969,16.8324831222481,18.8792692970749,8.21414824334624,3.48974750572177,0.84513206041936,58.1484715308192,35.4489285962178,53.7020564712135,8.44797573680262,3.87111411504134,11.2128480089708,17.1117855241494,20.4981359982784,21.5707911551675,31.564070760475,21.5837012031955,20.2082225041282,22.5001113963714,22.9611112654358,29.2713262278759,10.4708210913921,9.93735807735129,8.62407995268597,15.3839438059523,12.5002614519326,10.3863197875288,41.7965187680065,18.7611667764056,15.9204060116413,70.079239785888,78.1904678121813,81.4912293304002,7.40732836818245,5.41345904505192,10.1743903209356,30.2973949751383,29.0346916350201,26.9962039484772,79.033924001326,43.0210596452026,45.1831352609743,25.1798708558797,26.7328804865413,27.2946666856043,9.0765152265426,10.6008634695138,10.9913051900609,24.5168903233692,23.7806915240353,28.2971670712084,46.0811017908613,28.3101328873778,24.4986741433595,57.9931095402281,59.0179458998186,60.7270755474935,9.84707849687288,13.4771453962265,11.1691860248649,38.8245009128556,35.2045865271357,34.9724383777221,19.6493162375502,13.7723222512334,13.0404395288292,37.8204869410087,36.5689365798416,35.2568708708898,12.8744703255322,10.5892436771394,8.02962415273396,57.893243728266,44.9873197300018,45.630396787109,63.2138926378965,37.7221730058168,32.4634062066293,11.1655562037984,14.4808196825655,15.4944967044459,8.35628947959094,9.65836794364384,9.19658171259994,23.3277735676426,14.0036656874761,15.790448832596,34.4639281669372,29.460443387673,27.5294776388819,33.7561045550881,28.5035068908581,30.6000653874793
