,Temperature,A1,A2,A3,A4,A5,A6,A7,A8,A9,A10,A11,A12,B1,B2,B3,B4,B5,B6,B7,B8,B9,B10,B11,B12,C1,C2,C3,C4,C5,C6,C7,C8,C9,C10,C11,C12,D1,D2,D3,D4,D5,D6,D7,D8,D9,D10,D11,D12,E1,E2,E3,E4,E5,E6,E7,E8,E9,E10,E11,E12,F1,F2,F3,F4,F5,F6,F7,F8,F9,F10,F11,F12,G1,G2,G3,G4,G5,G6,G7,G8,G9,G10,G11,G12,H1,H2,H3,H4,H5,H6,H7,H8,H9,H10,H11,H12
,65,19767.5348519842,20695.1010147294,21030.5419204759,18098.3367804553,19127.4546471896,17843.296635443,17617.7792631412,18309.4168451664,18229.1887300064,18991.0278603689,18346.9111086418,18346.9367952098,20172.8018839059,19275.5325948829,20930.4503472783,19498.6678612603,19086.7228789062,18997.5444876455,17529.7355052349,17278.9160225961,18292.8382806393,19692.3866525662,17148.4298724639,17947.3625461791,20489.5696749497,21676.7308651845,21244.4700126456,19007.155890031,18086.599268289,19037.6345191928,17891.8465099106,18259.0650165522,18630.65971799,20320.0222502003,18733.4169099194,19553.6092845284,21323.9404400203,21094.27877908,20713.5077227978,17524.0022576263,18286.4461105321,18737.5293225225,18622.4828342275,18138.716618137,19383.3944649731,19324.4777427843,19718.9969690485,19498.0301793487,18419.3966021581,21049.8962475096,20464.5335342801,18767.0225338881,19395.2408523399,19346.8604817774,20041.0088351141,19714.9092067988,20032.1955195559,19180.7725649792,19306.08960188,19278.6373696869,19838.3835760645,20193.0600490163,20875.630508163,19033.1023058195,20162.4568034886,19579.467661178,19816.9512148222,19880.0185223724,20417.0606974062,20153.521009814,19787.6356711847,19740.3080196936,18944.4829104832,19141.4033699102,20015.9286929078,19523.0786287514,20236.9375824977,20502.7262408538,19824.5078637308,18688.5282945664,18281.0305804578,19010.3907792566,19721.3063638435,18949.3740080935,18373.5979469562,15173.9338664031,18841.3362233978,18892.1481975432,18518.2942838681,17463.2033376433,18236.2532374683,18134.7547881233,18461.3303796871,19617.6990514692,19952.6845132524,20927.6685005148
,65.5,19714.1292727774,20625.1552479609,20919.2101243986,18098.4131049942,19124.081209347,17820.2924427268,17647.753493296,18367.4681832251,18283.7380851278,19018.7821691275,18393.6823374594,18415.6187845462,20108.3602237562,19169.4445491031,20916.7552026559,19513.8113858464,19115.2400268509,19043.3805492458,17600.2641975727,17362.2585162969,18366.4756393796,19684.6274213972,17153.8920459025,17992.1649352604,20429.3787915923,21577.3126092081,21141.3262821198,19071.8147836097,18099.0613152729,19044.8415242551,17941.1383796694,18306.8094089634,18667.7279861719,20293.5359342658,18679.7867909411,19573.3823095282,21231.7525370776,21004.6317524234,20618.9818641217,17596.2885127884,18333.953545145,18802.1982823995,18640.1930451944,18141.1838812742,19404.4000908518,19353.1322190548,19750.412934375,19533.0418831008,18312.6949201871,20943.7351728612,20368.0087173776,18817.7693726747,19423.5924944683,19386.9272611581,20057.838304631,19713.9454394882,20032.6823699672,19232.0258805351,19361.6208050696,19362.0681348217,19710.4081828772,20082.3179665694,20758.0916559195,19047.376043556,20168.1734062688,19595.5411757181,19819.6381383958,19877.4557071388,20421.782967271,20181.8903590789,19822.7949867662,19811.5697295526,18858.1253057777,19029.1329874819,19897.7284904486,19513.7605474613,20242.0746975724,20497.0973354772,19864.6365154652,18728.8237982802,18377.2442058493,19041.8500505405,19745.3024305254,19020.3341649177,18245.4008881895,15015.2440070083,18713.1973145815,18896.4913335077,18488.7033664777,17480.4562139545,18275.5635401471,18177.5644466806,18505.6865509538,19591.986863268,19937.0480850651,20976.5314187376
,66,19660.7236935707,20555.2094811923,20807.8783283213,18098.4894295331,19120.7077715044,17797.2882500107,17677.7277234509,18425.5195212838,18338.2874402492,19046.5364778861,18440.4535662771,18484.3007738827,20043.9185636066,19063.3565033232,20903.0600580335,19528.9549104325,19143.7571747955,19089.2166108462,17670.7928899106,17445.6010099977,18440.1129981198,19676.8681902282,17159.3542193411,18036.9673243417,20369.187908235,21477.8943532318,21038.1825515941,19136.4736771884,18111.5233622568,19052.0485293174,17990.4302494281,18354.5538013746,18704.7962543538,20267.0496183313,18626.1566719627,19593.1553345281,21139.5646341348,20914.9847257668,20524.4560054455,17668.5747679504,18381.460979758,18866.8672422766,18657.9032561613,18143.6511444113,19425.4057167305,19381.7866953254,19781.8288997016,19568.0535868529,18205.993238216,20837.5740982128,20271.483900475,18868.5162114613,19451.9441365967,19426.9940405388,20074.6677741478,19712.9816721776,20033.1692203786,19283.2791960911,19417.1520082592,19445.4988999565,19582.4327896899,19971.5758841224,20640.552803676,19061.6497812926,20173.8900090489,19611.6146902582,19822.3250619694,19874.8928919051,20426.5052371358,20210.2597083438,19857.9543023477,19882.8314394115,18771.7677010722,18916.8626050536,19779.5282879894,19504.4424661712,20247.211812647,20491.4684301005,19904.7651671996,18769.1193019939,18473.4578312407,19073.3093218244,19769.2984972072,19091.2943217419,18117.2038294227,14856.5541476135,18585.0584057651,18900.8344694721,18459.1124490873,17497.7090902657,18314.8738428258,18220.3741052378,18550.0427222205,19566.2746750667,19921.4116568777,21025.3943369604
,66.5,19607.3181143639,20485.2637144237,20696.546532244,18098.565754072,19117.3343336618,17774.2840572945,17707.7019536057,18483.5708593426,18392.8367953706,19074.2907866447,18487.2247950947,18552.9827632192,19979.4769034569,18957.2684575433,20889.364913411,19544.0984350186,19172.2743227401,19135.0526724465,17741.3215822484,17528.9435036985,18513.7503568601,19669.1089590592,17164.8163927797,18081.769713423,20308.9970248776,21378.4760972555,20935.0388210684,19201.1325707672,18123.9854092407,19059.2555343797,18039.7221191869,18402.2981937858,18741.8645225356,20240.5633023969,18572.5265529844,19612.9283595279,21047.3767311921,20825.3376991102,20429.9301467694,17740.8610231125,18428.968414371,18931.5362021537,18675.6134671282,18146.1184075485,19446.4113426093,19410.4411715959,19813.2448650282,19603.065290605,18099.2915562449,20731.4130235645,20174.9590835724,18919.263050248,19480.295778725,19467.0608199195,20091.4972436647,19712.0179048669,20033.6560707899,19334.5325116471,19472.6832114488,19528.9296650913,19454.4573965026,19860.8338016754,20523.0139514325,19075.9235190291,20179.6066118291,19627.6882047982,19825.0119855429,19872.3300766714,20431.2275070006,20238.6290576087,19893.1136179292,19954.0931492704,18685.4100963666,18804.5922226253,19661.3280855302,19495.1243848811,20252.3489277216,20485.8395247238,19944.8938189341,18809.4148057077,18569.6714566322,19104.7685931083,19793.294563889,19162.2544785661,17989.006770656,14697.8642882187,18456.9194969488,18905.1776054366,18429.5215316968,17514.961966577,18354.1841455046,18263.1837637951,18594.3988934872,19540.5624868655,19905.7752286904,21074.2572551832
,67,19553.9125351571,20415.3179476551,20585.2147361667,18098.6420786109,19113.9608958192,17751.2798645783,17737.6761837606,18541.6221974013,18447.386150492,19102.0450954033,18533.9960239124,18621.6647525556,19915.0352433072,18851.1804117634,20875.6697687886,19559.2419596047,19200.7914706847,19180.8887340468,17811.8502745863,17612.2859973993,18587.3877156003,19661.3497278902,17170.2785662183,18126.5721025044,20248.8061415203,21279.0578412791,20831.8950905426,19265.7914643459,18136.4474562246,19066.4625394419,18089.0139889457,18450.0425861969,18778.9327907175,20214.0769864624,18518.896434006,19632.7013845278,20955.1888282494,20735.6906724537,20335.4042880932,17813.1472782746,18476.475848984,18996.2051620307,18693.3236780951,18148.5856706857,19467.416968488,19439.0956478664,19844.6608303547,19638.0769943572,17992.5898742739,20625.2519489161,20078.4342666698,18970.0098890346,19508.6474208534,19507.1275993002,20108.3267131815,19711.0541375563,20034.1429212013,19385.7858272031,19528.2144146383,19612.3604302261,19326.4820033154,19750.0917192284,20405.475099189,19090.1972567656,20185.3232146092,19643.7617193383,19827.6989091165,19869.7672614377,20435.9497768654,20266.9984068736,19928.2729335108,20025.3548591293,18599.0524916611,18692.3218401971,19543.127883071,19485.806303591,20257.4860427962,20480.2106193471,19985.0224706685,18849.7103094214,18665.8850820236,19136.2278643922,19817.2906305708,19233.2146353902,17860.8097118893,14539.1744288238,18328.7805881324,18909.520741401,18399.9306143064,17532.2148428882,18393.4944481833,18305.9934223523,18638.755064754,19514.8502986643,19890.1388005031,21123.120173406
,67.5,19500.5069559503,20345.3721808868,20473.8829400895,18098.7184031498,19110.5874579764,17728.2756718626,17767.6504139152,18599.6735354599,18501.935505613,19129.7994041619,18580.76725273,18690.3467418922,19850.593583158,18745.0923659835,20861.9746241666,19574.3854841909,19229.3086186293,19226.7247956472,17882.3789669241,17695.6284911001,18661.0250743404,19653.5904967215,17175.7407396571,18171.3744915858,20188.6152581628,21179.6395853028,20728.7513600171,19330.4503579249,18148.9095032084,19073.6695445041,18138.3058587046,18497.7869786081,18816.0010588994,20187.590670528,18465.2663150277,19652.4744095279,20863.0009253067,20646.0436457971,20240.8784294172,17885.4335334369,18523.9832835971,19060.8741219078,18711.0338890622,18151.052933823,19488.4225943667,19467.7501241369,19876.0767956811,19673.0886981092,17885.8881923026,20519.0908742678,19981.9094497668,19020.7567278213,19536.9990629821,19547.1943786808,20125.1561826984,19710.0903702458,20034.6297716129,19437.0391427588,19583.7456178275,19695.7911953611,19198.5066101282,19639.3496367816,20287.9362469457,19104.4709945019,20191.0398173893,19659.8352338784,19830.3858326901,19867.2044462041,20440.6720467304,20295.3677561385,19963.4322490924,20096.6165689878,18512.6948869559,18580.0514577685,19424.9276806116,19476.4882223009,20262.6231578709,20474.5817139707,20025.1511224028,18890.0058131352,18762.0987074152,19167.6871356762,19841.2866972525,19304.1747922142,17732.6126531225,14380.4845694292,18200.6416793158,18913.8638773655,18370.3396969157,17549.4677191992,18432.8047508619,18348.8030809097,18683.1112360204,19489.1381104628,19874.5023723159,21171.9830916284
,68,19447.1013767435,20275.4264141182,20362.5511440122,18098.7947276887,19107.2140201338,17705.2714791464,17797.6246440701,18657.7248735186,18556.4848607344,19157.5537129205,18627.5384815476,18759.0287312287,19786.1519230083,18639.0043202036,20848.2794795442,19589.529008777,19257.8257665739,19272.5608572475,17952.907659262,17778.9709848009,18734.6624330807,19645.8312655525,17181.2029130957,18216.1768806671,20128.4243748055,21080.2213293265,20625.6076294913,19395.1092515037,18161.3715501923,19080.8765495664,18187.5977284634,18545.5313710193,18853.0693270813,20161.1043545935,18411.6361960493,19672.2474345277,20770.813022364,20556.3966191405,20146.352570741,17957.719788599,18571.4907182101,19125.5430817848,18728.7441000291,18153.5201969602,19509.4282202454,19496.4046004075,19907.4927610077,19708.1004018613,17779.1865103315,20412.9297996195,19885.3846328643,19071.5035666079,19565.3507051105,19587.2611580615,20141.9856522153,19709.1266029352,20035.1166220242,19488.2924583148,19639.2768210171,19779.2219604959,19070.531216941,19528.6075543346,20170.3973947022,19118.7447322385,20196.7564201695,19675.9087484185,19833.0727562637,19864.6416309704,20445.3943165952,20323.7371054035,19998.5915646739,20167.8782788467,18426.3372822503,18467.7810753402,19306.7274781524,19467.1701410108,20267.7602729455,20468.952808594,20065.2797741372,18930.301316849,18858.3123328067,19199.1464069601,19865.2827639343,19375.1349490384,17604.4155943558,14221.7947100343,18072.5027704995,18918.20701333,18340.7487795253,17566.7205955104,18472.1150535406,18391.612739467,18727.4674072871,19463.4259222616,19858.8659441286,21220.8460098512
,68.5,19393.7996382098,20211.0390079019,20261.1718881832,18097.1387983295,19103.5688084411,17678.9021837805,17821.5499059564,18704.9167144035,18596.1581996378,19176.0018127821,18663.910950976,18816.9924714965,19725.4920167211,18539.8030006509,20820.783872288,19602.0458683584,19288.3121673684,19325.3545415925,18009.4601836142,17846.9825349516,18793.7871998614,19640.4487241213,17185.4387376746,18258.2937491331,20086.118396513,20988.9215425127,20525.9295166498,19464.7630693673,18176.049045028,19085.7944376718,18227.2301891814,18583.8480429103,18880.6939802643,20134.2481596251,18355.757450793,19691.6711073096,20688.7527188703,20471.680494149,20058.5988233913,18026.7206542195,18605.1108707215,19178.6474718178,18742.1655298274,18155.0104720258,19525.9182556616,19510.197354153,19927.3877042779,19736.5776991956,17679.6613630048,20314.1852665768,19797.7307420482,19109.1364355327,19586.7205942995,19619.2117727427,20154.7026009309,19704.6150487436,20031.8585821342,19525.2129310126,19686.0829607968,19846.6828870133,18947.4294814832,19423.3528324055,20059.5514257975,19129.4413760189,20199.9346816248,19690.1151655984,19830.6770629393,19856.6747041092,20445.2942304757,20347.0884285603,20025.8630445965,20236.6675806303,18339.126566603,18350.2532261584,19187.2234659315,19457.4355790165,20270.7102592731,20460.3784849276,20097.9107287239,18965.9988225317,18961.5946196698,19221.9904455261,19885.5031788541,19443.3480431314,17467.565118749,14034.7808714048,17938.5029547105,18915.9639598996,18309.0164297171,17588.8886672308,18501.3802766059,18431.7631231211,18766.469087742,19439.7324378389,19841.4851201384,21266.2004867822
,69,19335.9592567007,20151.6995805225,20171.3140034038,18095.1521307917,19102.2110271678,17655.2093309771,17844.1679517018,18747.3469037962,18628.5849196561,19194.0355434328,18696.531198824,18865.4899604141,19665.0294969511,18449.3755681351,20780.6543902939,19613.9703599058,19332.047904506,19386.6222715828,18057.6706166007,17904.4280702151,18846.2896101098,19639.5726683414,17187.9811613791,18295.2786546933,20062.9858927104,20904.6134545637,20428.4069701046,19517.1356779188,18194.9463632118,19089.4371370991,18260.3453906605,18615.7965668542,18901.244534751,20110.1689990526,18300.7491258872,19708.2864949684,20619.2405245029,20390.3896427917,19978.1392063491,18096.4840796073,18632.9665443931,19222.2657360834,18753.1445776916,18159.1227255369,19540.0046572476,19517.2033070799,19945.9369833081,19761.3759341774,17586.4730476721,20223.2528277449,19718.3757685808,19137.7593128788,19605.3270807996,19645.4343901961,20164.3906881182,19696.2776011127,20025.64242663,19555.6199370852,19724.2389646354,19897.2775515692,18832.0152798162,19325.9411803328,19956.7118064105,19139.490072235,20204.7825472276,19704.8649059477,19825.7635196746,19850.6997449696,20442.8933068466,20370.0140227787,20047.7417357849,20303.5101036689,18252.0451228111,18234.5846899186,19072.2167113289,19451.4095414185,20272.4182505284,20452.7841473683,20126.8858356503,19000.0693157788,19069.2896586844,19239.5066165397,19904.496814638,19507.5843425028,17327.8457736938,13827.8669463743,17805.8516757636,18912.9808236262,18278.8119832515,17620.4381342325,18527.4651238894,18470.7805408774,18802.7812914771,19419.0129020723,19827.3976342658,21303.6085528134
,69.5,19269.2358435071,20094.0295470727,20088.1421125609,18094.2511944833,19103.7370643877,17635.277875834,17864.6352029799,18785.9993980922,18655.5817830821,19209.3567082185,18723.4894050236,18897.9352436349,19597.6446039941,18366.2045504999,20722.6466015488,19621.5222631881,19388.6826257632,19452.9402642689,18094.8015341687,17951.9339924719,18891.117461015,19642.9575629788,17190.3677890225,18318.5243341501,20053.2582681798,20822.018096724,20331.9747086125,19550.686591332,18215.6882570979,19089.0758273803,18285.6562278217,18637.9788781219,18915.8358490507,20084.909158941,18247.0403154446,19714.8397862268,20557.6959087864,20305.3661535125,19897.8519988208,18166.8094483524,18654.4276534348,19253.555504452,18757.8392739733,18160.8051834978,19553.2194388833,19516.0902205691,19959.2836295101,19778.7499058241,17498.4244401697,20135.4306531224,19642.973277842,19155.2756833546,19618.0922644488,19664.5374411953,20166.8466839552,19680.8137358414,20015.1966864212,19579.2071741557,19752.9613177793,19927.8169926947,18722.5626927823,19233.6887621991,19858.4998556298,19148.1420443209,20210.2849184053,19715.457856826,19817.3398068852,19842.7488237574,20438.2194710349,20388.2749814144,20066.5214917731,20358.2928658636,18162.3709208383,18120.0432938012,18957.7460146108,19446.1171087687,20267.6275343184,20444.6272740722,20149.0210420228,19030.8259267379,19171.2879009443,19250.7142591921,19921.7925667719,19577.0137180519,17186.9367570595,13604.6874247187,17674.9935516686,18909.9200221903,18253.1763840653,17656.8728047377,18549.7943382889,18508.2745234155,18835.1047080439,19397.9182841573,19814.6323900617,21323.6728988697
,70,19186.404853118,20033.6833542034,20006.3638642736,18088.9462676172,19103.5061524482,17616.2513067723,17879.7545051041,18815.2460940941,18677.2019376491,19220.866163516,18740.4822541687,18910.1418947184,19518.3287145045,18284.6703065039,20644.1257562719,19622.637883914,19451.2227208594,19509.2663676524,18116.5847971976,17986.7790279184,18924.3479847065,19642.0228831081,17185.6945624009,18317.5567231023,20046.4359511274,20733.0940690677,20229.9684061176,19560.8313680057,18230.5254488202,19079.7263733758,18299.8500997723,18647.7563152118,18918.0145791517,20055.0138103374,18191.6945057057,19704.515442993,20497.6596352402,20211.8053106512,19812.7822224432,18232.0571701021,18666.6640253915,19267.038184242,18750.7409036766,18151.2046494449,19556.0381075122,19502.4347067395,19962.3128638737,19781.9069081601,17412.2151899584,20043.3678615364,19565.806661337,19157.0336862832,19620.1113345243,19671.5396876968,20155.3413248236,19653.6592942945,19993.2132742054,19592.3504085984,19763.6960211536,19933.1056878822,18614.9078635603,19143.6468825672,19761.0117668486,19150.6860074456,20209.1155639846,19717.1770631014,19801.5111398685,19828.5874628264,20423.2846804054,20397.2162293239,20074.5913379109,20393.2760214111,18063.9116064494,18003.1019679016,18838.1638319824,19437.2522729366,20250.9670067001,20432.1004293918,20158.7999900217,19052.4415063695,19241.6271570368,19252.6931155898,19933.9619054104,19644.6764849071,17042.3247042711,13368.9544294625,17544.4562542557,18904.6356224635,18230.9972795694,17694.0878326694,18567.043611519,18540.2045953813,18859.1516881927,19371.7783971421,19797.8861587194,21316.0840356179
,70.5,19084.0287148158,19962.5575246891,19916.9980119896,18075.9355189621,19091.4596628559,17591.7718128831,17882.3837178974,18826.1649583473,18689.1148192799,19226.3639696782,18741.2950619161,18898.6885732011,19421.6788852263,18199.4514974068,20539.08756506,19611.0570653963,19507.6661457987,19532.5759615813,18118.5593543407,18001.8800142505,18940.2622371407,19630.7525536,17172.4261928761,18293.9292843126,20030.063218688,20627.9190866656,20118.9496143636,19541.7480093114,18230.1681967072,19052.9544157831,18297.0054637291,18634.5489086857,18906.1374626016,20011.8341222338,18129.7311295866,19669.3591131163,20427.9584037107,20101.7427884357,19717.7731812717,18266.9290146296,18660.9348165,19256.1012233848,18726.3067598795,18126.2135335382,19541.1406990382,19468.1909002834,19945.9351069674,19762.1964269287,17322.7947905251,19941.4193957637,19477.8266696985,19137.2717061567,19603.3188442348,19656.9682026976,20123.6241443722,19608.9094387705,19951.5501453169,19589.0193991093,19751.6802222876,19907.9595423105,18500.6510393129,19047.5129899836,19656.843486275,19140.9970533566,20192.0549124261,19701.3892072111,19772.0764054578,19801.103958551,20389.9102642526,20391.0476311543,20066.0009075043,20396.1035937065,17953.4857101634,17878.1309156694,18709.5440822919,19417.0078250021,20214.1892573799,20408.330396547,20147.748060728,19056.0184727512,19272.8505811366,19237.0834136255,19934.1320938091,19704.7482019352,16891.8902023327,13125.3676388401,17411.4265080238,18889.2880061671,18205.033925866,17721.5326198891,18575.2409434651,18558.862068419,18868.1667922671,19332.5830355092,19769.5494471315,21277.4282704027
,71,18960.4580825174,19873.9672732798,19809.7596029371,18045.6981976662,19060.2088159158,17555.5796786152,17863.3586370213,18812.8781489496,18682.6714378098,19217.7745300105,18724.5479932813,18859.6149793674,19303.66366273,18102.7138425059,20414.670850875,19577.8755437142,19545.5930317599,19516.9283980502,18096.6884617461,17994.7772480661,18933.0885000822,19600.1239684958,17142.6485878291,18242.1230892108,19982.4960311921,20501.3184919964,19993.3853526762,19488.1980063645,18205.9355791138,19002.9583881263,18274.3989815407,18594.8069317766,18872.3295786818,19945.8677638263,18055.1536936197,19605.2405571027,20337.6223858857,19970.4885384493,19604.4274097803,18265.7624153092,18629.0031899213,19215.1586976388,18680.2230131117,18078.2785025425,19504.3463792274,19412.2103050717,19903.6416404674,19712.605433878,17222.1666227344,19820.5199387807,19368.6534923577,19092.8061951318,19562.0270291871,19614.5360411657,20067.4677519235,19540.059772301,19884.5187337537,19561.1184815243,19705.7713807288,19850.572523859,18376.8313212474,18937.5442736825,19538.7744548478,19110.0533189613,20152.7047228566,19659.2433615073,19721.1773736808,19750.7424485146,20332.8119746697,20360.6306566175,20035.5485384494,20365.4876881699,17826.8888500811,17741.6634835179,18567.9765326004,19377.6735167826,20152.152549827,20367.1302942603,20111.9026844966,19034.2975367188,19258.0721864056,19200.3149176258,19912.4684306458,19748.1611045829,16728.9986507029,12876.5452806149,17270.5391784876,18859.8446497633,18168.9416473362,17729.5359291801,18567.3130701213,18554.3944270806,18857.7198465083,19274.4183649197,19723.6972490007,21206.5372760989
,71.5,18817.9432332091,19767.221296168,19680.8929325935,17994.6820121839,19002.523108695,17500.3178812433,17816.6161289207,18770.9065904074,18653.1292706771,19184.4203929672,18683.1108068828,18793.6757615507,19164.7953715981,17986.8804562307,20266.5558184897,19518.5618653001,19538.5676658328,19461.8078711069,18046.5114200841,17963.6510789588,18897.3463677166,19545.5578383631,17093.7061937568,18164.0564105216,19896.0441407536,20351.1576459652,19852.0672489235,19410.2747774879,18154.3570832378,18928.3082182289,18239.568270903,18527.5516903275,18814.0763333005,19854.9274648506,17965.9632595071,19512.8497231659,20220.0006051719,19817.5047229057,19468.8677650634,18227.9341860264,18570.5408940312,19142.9282723227,18609.0342967136,18002.9645503945,19439.9302506188,19329.3191970498,19829.6748488834,19631.1118364636,17106.9933518414,19679.2019129659,19236.5306104317,19022.9178666961,19490.4782941287,19542.7664871156,19997.3808151955,19445.598225429,19791.1519152391,19505.3278692787,19630.9055962084,19765.25461455,18236.5943321009,18808.7493703103,19400.3903225304,19053.5431870629,20087.4348742562,19587.1566122816,19645.7791979112,19673.5591615511,20247.7786752721,20303.4037395907,19979.8576099486,20302.8680846116,17681.3152615173,17587.4491477194,18406.5233148774,19312.6607700929,20062.8506133157,20302.7916290217,20047.6136939927,18982.5921634544,19199.8319304671,19140.3522738887,19863.8362941261,19775.4670082646,16550.401982566,12626.4697714408,17117.9474350822,18808.7446484421,18116.8920154363,17707.1087963686,18538.4489889876,18523.1621839043,18823.0981533242,19194.2452804817,19651.7338700448,21104.5418980679
,72,18658.2587446968,19642.4217679993,19528.7655423479,17919.6806035819,18917.3983916117,17420.6382986288,17742.3916626758,18699.6624710258,18596.0789044726,19126.3189498774,18616.9223727756,18704.8433823982,19008.3244858725,17849.9620482304,20098.7196527066,19433.6807599585,19485.2559630159,19366.39411853,17972.618729224,17907.0110216606,18834.6262967015,19464.2022981811,17024.3028325854,18064.8349815077,19771.0739589168,20178.0151505895,19691.166159559,19308.1737880597,18073.7696917201,18830.2301852721,18190.9321680304,18435.3157519041,18730.0485196978,19739.559460684,17857.4247504918,19397.0485694509,20075.5720887468,19644.723304449,19314.0968157841,18152.3564817722,18484.2578786433,19041.9641460286,18515.8852594359,17902.9071552639,19346.2249112308,19218.9690658777,19724.8828359987,19519.2261691054,16974.5670603424,19517.5305237747,19081.43172968,18929.3671954898,19390.5686238099,19442.2283625698,19913.1500740026,19327.6542440857,19672.7132334971,19419.8968081548,19527.0467409386,19654.0248001497,18076.6720720855,18660.3926012852,19241.0609112799,18970.3578015664,19992.3191730175,19487.1815238866,19546.0466031299,19569.8513727449,20133.9822329274,20219.3675606645,19896.523423547,20211.2390433707,17518.3885028335,17414.7490128949,18227.4088987118,19221.9590694764,19948.3008894423,20212.5950970395,19954.5424709263,18901.6490331428,19103.2892520506,19056.7506649694,19788.0385125901,19757.7216678907,16355.0634234154,12379.3715636266,16950.0629233209,18731.6003574274,18042.0952830947,17651.6053947024,18486.5606145333,18465.8968103371,18763.5263911822,19092.340068233,19554.972794527,20977.7785719185
,72.5,18487.9887474315,19501.1940065965,19355.6315039207,17823.3128970641,18806.9516499371,17316.9529290937,17639.9228866453,18603.1788584554,18510.4932602692,19044.4299242671,18529.5530509871,18596.4565930325,18837.0786461002,17693.0700239617,19911.8878983013,19322.9030709983,19390.7078728739,19241.8291859972,17876.9338452534,17827.0815066579,18745.6293846524,19360.7052653221,16938.9828995793,17953.3725139585,19612.4164769578,19987.0565768306,19514.6975696865,19184.4182924237,17967.8825238513,18713.6660268107,18129.4355061854,18319.2664727668,18624.9317435032,19600.6028917373,17729.6625131987,19261.3763920892,19905.9963554743,19455.3356978049,19142.3262421911,18042.8946696506,18373.8142960736,18917.454144445,18404.6463068122,17783.1091831807,19231.0559040171,19087.4494855152,19593.2333132379,19383.3800108592,16823.270871707,19338.5688883735,18904.1023193127,18825.3657279806,19264.5538189523,19314.9543144062,19817.0261185,19188.5593051576,19530.8956867195,19307.9930169218,19399.9742669171,19524.2381132354,17898.3986641623,18492.170855371,19063.258184395,18860.0839149312,19871.7432524107,19363.3926964348,19425.6004816615,19440.9868433125,19998.2890632075,20110.463447997,19789.8017143999,20094.5648012472,17339.7716074419,17225.0335094803,18033.5918932375,19107.7733450796,19812.3158201184,20099.1563236128,19839.6508590072,18794.5479978639,18983.0112881681,18948.7560969827,19687.3020022625,19699.734219769,16146.1230231371,12138.2694362127,16767.5727036363,18632.5060459327,17943.3230593778,17564.2978137943,18410.83304111,18382.9802260176,18681.9349907991,18969.5930632483,19437.1319808612,20832.5514993515
,73,18309.9380228845,19350.1746833391,19165.2183441941,17707.4667768048,18674.6261996473,17191.2410810795,17515.4510005356,18486.1208735883,18401.4773073908,18937.0052089867,18424.4794085663,18470.6804795399,18654.9856504104,17519.2153923909,19711.7036974314,19190.7554878686,19261.9435952921,19099.46767519,17763.0131342289,17729.1475034276,18633.7914570165,19236.7498539669,16838.6319636226,17828.6829580413,19427.8747144031,19783.1674766108,19322.6128139583,19041.3366096612,17841.8028579894,18592.8619928533,18058.9831624492,18185.9579348013,18497.3185342123,19442.4503048702,17585.4348809613,19111.8649242381,19716.4306337824,19253.2494103125,18954.7603460449,17914.8475435156,18242.9636028202,18773.7558774181,18279.0867694504,17647.4046427962,19097.9252648067,18939.8802396306,19438.6338755285,19228.9657401494,16655.5848212259,19145.4858612556,18709.9375937217,18714.7739764756,19118.5610838656,19168.199824929,19711.4791902606,19032.1522278769,19371.8689593402,19174.2623688201,19253.6493867343,19381.6726518612,17706.9308119786,18307.2706761402,18868.6554516789,18726.7996949099,19731.8367722827,19217.4099530681,19286.6190392853,19292.5021727262,19844.0388955265,19980.4316649099,19663.0924017865,19963.1666701566,17150.4581930067,17021.0417071635,17827.2035249068,18972.9064103952,19659.1864406583,19964.4347272586,19706.0350983767,18664.3478584731,18844.2386375319,18821.1941560999,19563.6985515339,19605.5608725021,15923.7683947566,11904.5148436844,16571.402198557,18512.8135548328,17821.2719305711,17450.799593383,18314.0357279052,18279.6176034304,18581.9669777379,18831.6835896592,19302.9151636252,20674.4859988886
,73.5,18127.3135626723,19200.1364050159,18965.5071383389,17575.7827939179,18526.0613915534,17047.2316886525,17374.156718275,18352.6008410304,18272.8099127305,18809.3403668814,18304.9965136585,18335.2186798177,18466.6738428385,17332.7608561322,19502.8116275671,19041.0848511662,19106.8656174809,18945.1441786051,17633.9598948812,17617.3002221311,18503.1480379091,19097.4308033078,16725.5281811818,17698.3981041406,19230.2871712926,19570.290470024,19118.3003645803,18884.1367760461,17701.3983665892,18470.4648375647,17978.3897551234,18040.0461075968,18352.9623121538,19271.1808289612,17428.6524653804,18954.2264988096,19512.0649987909,19043.358503936,18756.5436521407,17771.5979544618,18099.2995906082,18615.1772337637,18142.3025841838,17501.3668068233,18949.1075787955,18775.9427465531,19269.8832798707,19061.1791923284,16476.7159942975,18942.6376204279,18506.8073375546,18599.9355398297,18955.6043675976,19005.991159276,19600.372071136,18863.2724482956,19200.4181918648,19023.7686879636,19094.2352163578,19232.4221258317,17503.2220361977,18109.2917383487,18660.3188784015,18578.4650378192,19574.832075157,19057.4447372307,19131.6701355612,19130.6287049235,19674.4759998214,19836.3036049767,19521.6612278854,19821.1110434896,16953.0723160349,16804.1371033402,17610.2015509033,18821.5578201849,19493.3358974516,19811.237018945,19556.722484723,18516.8947268347,18692.2430666962,18681.140234394,19423.567725916,19481.9694476954,15693.4285577427,11678.5644372779,16364.5383330288,18374.442656044,17680.1031232313,17316.2285748667,18201.6706234448,18161.7106688088,18464.2971356729,18682.4706283559,19154.6831502858,20507.8905575913
,74,17940.7916845413,19050.8853569993,18757.5264895419,17432.6042893371,18364.7612777733,16892.4589973972,17222.4355739022,18206.6060577272,18126.4172430586,18665.9077103844,18178.7318684076,18190.0786699823,18273.7410522567,17139.4933743259,19289.4478276143,18879.7787252473,18941.5687733667,18781.6463269506,17495.4077187791,17491.7230483514,18360.3436190802,18946.1071063713,16604.1556790747,17561.8446877266,19024.6652868889,19352.6837261696,18903.9704103005,18714.5764419667,17551.3298612513,18349.1502032781,17871.6859152051,17884.2080856834,18195.4321688473,19087.8873457986,17260.7560845801,18793.710568183,19297.7082436373,18828.2081565377,18551.3294891206,17616.5778927501,17941.7920889249,18445.6938628758,17997.0162129684,17346.9899569892,18791.3980475288,18602.8222741092,19091.0759535223,18884.5336826112,16289.2953941391,18730.995916307,18297.3510673503,18481.17612249,18781.8508676869,18831.3778304571,19462.7793586769,18685.8500241126,19020.3967145167,18860.6399916769,18924.6352206607,19079.2439142357,17292.4341402248,17902.7124838153,18442.6806300344,18418.5437426946,19403.1770863104,18887.1095000011,18965.3651994887,18956.948862782,19496.8323581989,19679.6024917641,19370.4330758597,19668.6048980943,16751.6282695475,16577.6889697596,17386.8078887754,18658.3837301923,19318.7612362045,19644.0151191448,19395.4946412772,18356.6964457205,18530.2281494069,18529.5884012518,19271.72839287,19331.3343482016,15459.115931643,11459.9758273379,16148.3110706428,18222.9215513434,17525.2571549167,17169.0945364414,18074.9468134966,18032.6548350333,18332.5012689301,18524.0883146727,19000.0600144047,20336.0510658954
,74.5,17753.0931518063,18901.4100319107,18544.9688771158,17279.2400615815,18194.3735299395,16729.5403719712,17063.7868415807,18048.6939949111,17968.5596857263,18511.0303669433,18050.4828808399,18040.1458233373,18076.6027645489,16943.3109720838,19070.5594481834,18710.3656016958,18771.720484741,18612.2354630021,17347.5965453139,17358.7090311184,18205.5261584202,18785.5742682439,16475.6597654658,17421.2625928636,18815.54922297,19132.7951103296,18686.6628998966,18535.3805816215,17395.13594335,18229.2702922849,17743.7842152767,17719.7251404649,18027.9268038543,18897.6200627645,17086.7380069777,18643.8463340233,19076.8659263753,18609.9505654132,18340.9141015141,17453.6354902346,17776.2386280163,18269.4772391659,17844.2472197363,17187.9712692209,18627.2393524184,18424.7025247702,18907.3417894037,18702.189629125,16096.9412141044,18514.7707205914,18083.908607863,18359.6739676207,18599.7500530787,18647.8729825404,19305.1205886479,18502.4184476258,18832.1642718741,18688.9170505124,18746.9713692538,18936.1019391106,17078.1253662019,17689.5921916133,18220.2750755708,18249.2728778473,19223.4413190024,18708.5509478413,18790.0683440656,18776.0395374469,19311.5503243086,19514.4414770093,19211.9540199496,19508.7120109274,16547.3529562217,16343.1052106516,17158.964098654,18485.7538731784,19137.4476468469,19465.4729367047,19226.8787738438,18187.7032267198,18360.8355729318,18371.1553679202,19110.1962549718,19172.2247315044,15223.5724667198,11248.0583538548,15926.1971928849,18062.5638312112,17362.7964681095,17014.1863878499,17936.7787038385,17893.5858848932,18191.047187066,18358.9792456516,18837.8388768562,20160.6928290451
,75,17564.252057247,18754.3692544987,18330.9956160124,17118.2815763978,18017.8715763612,16560.5029571901,16899.4695999533,17880.4324956657,17802.274443195,18343.9239456062,17929.5129275033,17884.4091148475,17878.8970730604,16746.3323510829,18849.1202360264,18536.1221646934,18595.9669124807,18435.9913772035,17192.3432328074,17219.2339800516,18043.502734012,18617.9471220015,16339.1729324873,17274.6913112133,18604.5451221948,18911.0386270713,18465.4887798328,18349.4171989017,17234.890651922,18108.8502456761,17598.4826549055,17549.383619451,17850.8373807134,18702.4092826323,16908.4365844838,18506.5540502912,18850.8630600433,18388.9231441207,18126.8071268939,17284.1505391103,17602.2477259045,18087.2160187809,17683.9261077812,17024.1815270556,18455.413786795,18240.7427625556,18718.2305741669,18513.9932050873,15902.526222352,18295.3375366636,17869.1557519554,18217.3499769315,18411.7445367658,18458.9483840253,19128.3525941522,18314.1689374428,18641.0184725272,18510.6940716564,18562.183628725,18801.807229187,16862.1958670264,17472.9793370088,17993.4507678361,18074.0175122434,19036.3220727131,18523.0929431621,18606.8474267344,18591.7050064641,19119.3059944927,19343.9807426922,19046.2739637952,19345.2287212753,16344.264037337,16100.4420511185,16927.6980714461,18304.3865875549,18949.2252804511,19278.5058401891,19047.8479089605,18012.6114748154,18185.4535136847,18208.1436321595,18939.6889127897,19006.4091600564,14987.0836788252,11042.7378388983,15701.8502877728,17891.0969059888,17194.16063956,16852.9840831669,17790.5698862493,17745.6076114094,18041.9854997341,18188.371512423,18669.3164224507,19983.1901939827
,75.5,17375.9532148635,18603.2611943367,18117.7629316584,16951.3495683677,17838.5864504111,16388.4913180063,16732.4511287497,17705.6568645981,17628.1776841402,18168.5572845632,17815.6398076467,17728.5248684882,17680.184849897,16548.5649996051,18627.640675485,18356.2107899387,18414.8424773365,18255.9146661925,17031.0784096018,17072.6480959283,17875.9692037512,18443.6495565931,16196.7616875588,17125.2729223256,18392.9082938638,18688.8677681646,18245.3920381404,18159.5468567039,17071.7104748523,17969.6502275886,17435.4470134396,17374.3447797139,17669.6663291343,18504.186664499,16726.5030178345,18381.0435799992,18622.8155794227,18168.5017791504,17912.0281485123,17108.2861947576,17422.6921162984,17901.4974063652,17517.0410063107,16854.9279444608,18277.3042281576,18052.2845989283,18527.5047067913,18322.685250864,15706.5992343647,18074.1617990939,17654.358425306,18057.6170295737,18218.5597729088,18265.1516510855,18937.8151690322,18121.3598238364,18447.2294234523,18327.1103731056,18372.5374979389,18677.9139260561,16645.372962518,17256.1081148666,17766.1211788309,17895.0533294903,18842.2279367881,18334.9992795159,18418.4823160673,18402.2070726246,18925.0338124522,19168.3762181101,18876.8195931609,19174.5584812994,16140.411747821,15850.6588696519,16695.3291636157,18117.3508803686,18756.7286336205,19084.7463711025,18862.7769547883,17834.2235028518,18006.3123165563,18041.958916114,18763.5097628657,18834.3404944008,14752.3583772711,10843.4077487461,15474.4376361297,17712.9466444288,17021.1759941171,16687.0134482626,17637.6838992036,17589.025912789,17883.9934849082,18013.2809141168,18496.2544585547,19802.5241327947
,76,17186.9688932449,18432.7467934469,17901.2810708815,16780.8681274486,17655.1159852882,16216.4511628171,16562.015698367,17525.0024191194,17449.4483473474,17987.4284215802,17710.6940749234,17568.4052675853,17481.1342208825,16351.8256034764,18405.1247369621,18172.7617765605,18230.39592526,18070.0024369557,16864.6454812436,16920.8421971224,17703.6960999858,18263.1335174265,16050.9322541386,16969.1334501668,18180.5208899771,18468.2858363468,18027.7644613614,17965.9080600536,16904.7537821865,17813.2469085297,17259.8024081148,17194.2194334973,17484.6756592768,18303.7218445413,16542.6500954301,18263.8876608961,18396.1277799217,17948.8836486448,17697.0183347668,16927.7863779143,17236.4946473264,17712.2946502722,17345.4715439604,16680.5958245859,18094.1818934057,17863.8937994601,18331.670710224,18127.9087545189,15509.8696991868,17853.0536580258,17437.9729264815,17881.6548093281,18023.1205061432,18068.4379108429,18733.7897190669,17925.6101573949,18250.387714295,18140.5708861568,18180.6417589256,18560.8045031621,16429.6567769929,17041.2573212272,17539.8479783337,17710.290562711,18644.121301603,18143.3099935022,18228.499797863,18208.5218072318,18728.7470972455,18986.9897925213,18702.2731336523,18998.0694409473,15937.6629578302,15596.4002626482,16463.802874236,17926.7203505122,18560.171311813,18886.027583065,18672.2464214806,17652.9823989656,17823.5946015714,17871.2664926599,18582.4374929576,18657.7588758172,14520.1120167024,10651.0149933931,15246.5807548348,17531.7550382196,16844.3212360059,16516.0697053853,17475.4641839549,17425.0627761559,17720.7711199952,17832.5794873242,18319.4089463318,19616.1394694951
,76.5,16997.244753335,18246.8804452774,17686.5371581921,16606.6917554658,17471.3997505278,16040.4883777119,16388.00925241,17338.6325255941,17269.2871231055,17802.5565524592,17610.5609682111,17405.1231846787,17282.9896068533,16156.3457083328,18184.5005712754,17985.8123353987,18041.5316391503,17879.5151213954,16692.4234683233,16768.0782072132,17523.9494061289,18078.8825833545,15899.6590265343,16810.7370837654,17969.1236093265,18247.7354176322,17812.5498054278,17771.0157564277,16733.988713385,17640.8313688691,17081.4614665537,17010.7015942533,17297.5589605553,18103.7129450288,16358.5222439954,18150.3217353851,18170.8363268263,17729.6910076294,17482.5806686959,16742.4110737264,17047.7843530967,17520.4878877777,17171.0951347322,16504.7421122414,17905.8737705603,17672.4697208133,18133.0511130978,17929.4191144783,15314.7639638294,17634.4276545079,17222.5173091381,17691.9631362401,17825.3357929919,17869.1490674873,18528.8602338244,17726.9095012324,18050.9486862944,17951.3257699874,17984.1482381249,18447.4840839993,16215.2293857052,16827.3381165411,17315.8178354331,17520.8549419746,18443.4471224465,17950.3154009274,18035.8561252821,18013.4617140333,18528.4819307324,18802.9771900091,18522.7123933065,18818.1623667072,15738.4390863258,15339.4560227977,16234.2821610363,17732.3254462583,18358.3011788575,18683.6567644251,18476.999776235,17469.7060185985,17637.3157619042,17698.2555996331,18397.303702485,18477.3253269189,14290.1978802894,10464.6489744413,15019.6711206627,17345.1217679536,16664.8344584267,16339.9637066989,17305.9915280293,17255.479059332,17552.7615093949,17648.2221968576,18138.1700957725,19426.716091825
,77,16808.3242053641,18049.6572861056,17474.4382614556,16431.6587474698,17285.0937437033,15863.9849847398,16209.0774184151,17150.830796444,17086.697017464,17611.3388079313,17508.6309663638,17236.9998408384,17088.6128439834,15961.8550901116,17965.9220760509,17792.8518950173,17846.0110561056,17684.0929547542,16515.9643030682,16622.6025441734,17339.1695316156,17892.2051424579,15744.273598461,16647.8905979674,17757.7497278506,18027.9204921919,17597.1139800608,17575.5099820712,16559.8627203192,17454.2687896736,16899.7519661177,16824.9300929859,17107.8097364612,17900.3673363432,16174.1510076888,18015.1669051067,17945.8729097587,17512.2040448686,17268.7120295519,16553.9010541556,16855.3527122068,17325.7583830232,16993.6409646615,16323.7542311456,17713.4749270358,17478.179094298,17929.9171150803,17727.767080542,15120.3253796442,17416.4078163695,17008.9068445938,17490.4348282604,17625.2996922654,17667.6642035751,18320.974654678,17524.6241330755,17849.7918124081,17760.1527575789,17785.2982847748,18314.2051323136,16002.5125681271,16614.7654593341,17092.4880742535,17328.7829972922,18239.9846461368,17755.6254219214,17840.9182521459,17815.8892942608,18327.4729376855,18615.4216419284,18338.2843933481,18635.3062177291,15549.8005426472,15083.0623033817,16005.6561382189,17534.6463557494,18151.6688081699,18478.3036895989,18277.1009031163,17283.2639983354,17447.7071556924,17520.5613570696,18208.1965910274,18294.5621342817,14062.0460253834,10283.6547860922,14795.5739503139,17154.1418043859,16480.8064020661,16160.1085936826,17132.3042920712,17079.7038333105,17379.9716797033,17459.8434569106,17954.5338790174,19232.9610175387
,77.5,16619.336916773,17840.4868341842,17262.6580431699,16254.9163671599,17096.7594912524,15688.045298851,16029.9478599706,16962.2143818672,16902.150594289,17419.0111684609,17385.504700551,17066.9952043772,16894.0361931099,15767.8686234927,17749.9946651651,17594.6467057287,17645.1959526004,17483.904801391,16336.5218366631,16483.4755694893,17149.9013358937,17700.1088102648,15586.5883402398,16481.6164460286,17546.4704558816,17809.7414984186,17385.1423232935,17378.0780161211,16382.4167017075,17255.819747723,16713.3061032982,16635.8760954726,16917.1679370538,17695.0821911554,15988.7859546516,17857.7704139205,17723.66902562,17297.2067583282,17056.1572202994,16362.886161856,16660.0787987002,17128.5961858467,16814.6608901008,16138.3296171681,17518.0919654542,17281.1967657679,17725.3079103738,17524.5189321882,14927.6456953822,17199.7555120901,16797.443620761,17286.9957224682,17423.1932951694,17464.3297567149,18111.9715443448,17319.4809605405,17645.7053299583,17567.1133490705,17585.3884739863,18162.8548825454,15792.3528696019,16404.4531358802,16870.5215544351,17134.6526964609,18035.0917448997,17558.6482138083,17644.7771066075,17614.718786913,18124.3090253529,18423.7485142969,18151.9031771496,18447.3300875577,15369.0639824135,14831.7252224425,15778.9096108437,17334.7536883511,17941.8935765467,18267.9177547792,18074.8649417549,17093.0365711554,17254.6593824126,17340.054452345,18016.8782454071,18107.6865393069,13837.1279179869,10106.9573897032,14570.8071574816,16961.0272829694,16294.7663159565,15976.5018978006,16953.6515943417,16900.0175280354,17200.8559434581,17269.5683337664,17768.3904326756,19035.3245820217
,78,16429.2340943093,17623.3928116993,17050.9610722508,16075.8820854769,16905.1849718703,15510.6449354959,15846.4646828296,16771.2679291354,16715.2000987663,17224.1184443771,17243.4995005112,16891.5994657113,16701.742283847,15574.8102895489,17534.4080382987,17393.503750397,17442.2901925205,17279.951381012,16152.8372620527,16353.225438104,16955.157067862,17505.875484212,15425.2260229484,16312.3529828239,17336.0462256746,17593.6937039018,17174.2037195799,17179.3917069615,16202.6179871714,17056.1464084764,16524.7947674054,16443.9545391171,16723.8139272081,17487.9461682892,15803.355774296,17681.9775668953,17502.709075665,17083.1019617746,16845.2680266056,16169.1249388069,16463.074826663,16927.1343440152,16633.8415631555,15951.1542821435,17319.3433667449,17081.9794112552,17516.4826737,17317.9689166366,14737.5927964119,16984.83184319,16587.3056385674,17079.9710361595,17219.2583649076,17258.7740973254,17897.3652079776,17113.3584618166,17438.4560261083,17371.1504061254,17384.9566811838,17992.2763121951,15583.9645478373,16195.0085079429,16650.4493529166,16938.5892034519,17829.7262925423,17359.3556403096,17446.5394827388,17412.522656924,17916.041978051,18229.6109577074,17961.624367644,18256.7999169701,15197.6248322713,14587.7456201652,15554.0688354406,17132.4721570244,17727.5739657628,18054.5362064751,17869.0716997892,16898.688281003,17057.1225566428,17155.9528526213,17823.6766076994,17918.9992412278,13613.6190999665,9934.51682308676,14349.3827365918,16765.5650778075,16106.7451846431,15789.2716516394,16770.5010825691,16716.7772525195,17019.1070285178,17076.2037539906,17577.2663509645,18835.1149061543
,78.5,16240.5207307339,17409.7515170202,16843.3103459984,15895.8947976464,16712.8790466083,15329.8801721831,15662.0659681043,16577.1394511364,16525.5515794745,17027.9107941361,17080.5528315842,16713.4201297885,16510.7507036136,15382.6345728818,17321.5989630595,17190.0196199807,17234.9584560884,17074.2311027655,15965.7713826192,16227.5108505421,16757.2280435139,17311.3518377968,15262.6947198231,16141.3605947983,17126.6544542158,17378.2604298353,16964.2035052763,16980.0074294605,16021.7902361091,16855.8612622664,16332.4869727381,16250.0619833552,16528.0895656303,17280.3805226142,15617.8961825186,17487.8137386962,17282.1887015527,16870.0803539338,16636.6425968748,15973.5949722952,16264.6777749209,16723.567476942,16449.0052646318,15761.5891281052,17118.6794768499,16879.9066598936,17308.4270738276,17109.5582161895,14549.8985815763,16771.86831061,16379.2806900064,16870.5885416905,17011.3904390612,17050.5051913453,17678.2115504009,16904.5888596311,17228.8600329087,17172.0235360985,17182.9982215656,17805.0369588486,15376.4032723611,15985.8402534492,16432.2502880355,16740.7221536675,17623.6541627763,17157.0782083429,17244.0694878435,17209.5153808901,17704.9262605129,18034.3974363231,17768.9148891706,18064.0202881526,15033.5901403544,14352.1915519538,15331.241897942,16926.6644145341,17510.3175003823,17839.1480483206,17660.3978010554,16701.0327768364,16856.9785356379,16969.8785821559,17627.7493434744,17727.6951157264,13390.760467559,9765.19445063942,14129.9939304876,16564.3523436143,15917.5235802051,15600.36830153,16586.7035108052,16531.3052624939,16833.1931241458,16881.5667890737,17384.4058149541,18633.9257741274
,79,16054.9084403381,17197.5671043983,16637.3438503566,15715.664032168,16518.2880664269,15150.5406763117,15477.4883482013,16383.4938033357,16333.5255630075,16830.5805121685,16900.4540585685,16534.2085570613,16321.5661680523,15191.2883118765,17109.2018546321,16983.9702841696,17025.4753209826,16865.1000248307,15775.7514776421,16104.4203867513,16557.9636267627,17112.8377604557,15099.8807551637,15965.4624468735,16918.9135857069,17165.4958802607,16757.3703885871,16779.3823054516,15840.6577054125,16654.8577562342,16136.9857276396,16052.0907539725,16329.1201892579,17070.418072896,15430.9063506816,17279.435273389,17063.5360028307,16659.8253575288,16430.6799504205,15776.8893540698,16063.4631248277,16517.1832943854,16259.14937464,15567.9187031463,16916.4016340045,16676.0046523428,17099.4372509556,16901.0110130769,14363.4405285492,16559.3502661259,16172.0542453819,16658.3165374388,16799.4977660119,16838.587955708,17454.4942265476,16692.9767374817,17016.202552211,16971.1896283531,16979.8385495065,17604.279122152,15171.0154835027,15778.2200682377,16216.0093928152,16541.7009800115,17415.4578903027,16950.904333848,17039.6392321212,17003.5413180226,17490.864284002,17837.3560999807,17574.0834758272,17867.3251694748,14873.1427285304,14125.3817131872,15109.559108367,16718.7902616751,17291.4968198533,17620.3603065635,17448.7277971278,16499.7896435926,16654.0490762123,16779.7532771683,17430.346727432,17534.2546748912,13168.5649121172,9599.21930677264,13912.6072069936,16362.2905952526,15725.6685189853,15410.112458696,16402.9057527092,16342.8278570328,16644.5421850456,16685.6134142387,17188.5307163712,18429.5605496954
,79.5,15870.0309569694,16987.2651637134,16432.3931048191,15534.4607625626,16323.2354994875,14969.4330648938,15291.9047323544,16188.0828083391,16138.9358115508,16633.4976576421,16708.9609339495,16352.2402610228,16130.765532331,14999.9608535287,16898.9433169979,16778.0415236078,16814.4306079124,16655.1171662365,15582.4447403074,15961.7237497845,16357.0254808407,16909.9964749517,14935.1543910173,15786.9630233271,16712.8922225346,16954.6889687172,16553.4900162513,16576.9148117679,15659.02571544,16453.6314558962,15937.7650602758,15849.591937409,16126.4444861027,16861.0535872925,15243.1987262964,17069.8445588657,16846.1940698257,16451.328206893,16227.0779366041,15576.3691569884,15859.3327297779,16306.5447928722,16065.9809232245,15373.2184466606,16711.4330244685,16470.4177971089,16890.8296939149,16690.1615408079,14178.8861899599,16348.1072891008,15965.5993588368,16441.7980626297,16583.1943341414,16623.0176864347,17226.1012572602,16479.2706887898,16801.7937351558,16768.1375688153,16776.7043053914,17402.9691848995,14967.1069298005,15572.5984917558,16001.9491872689,16341.0221931318,17205.216419771,16742.0980357914,16833.1840227938,16796.4211183023,17273.8657168943,17638.1286561993,17379.8030932196,17667.135668397,14701.5223789354,13905.9089017105,14889.5839744511,16509.2130677283,17071.2005560794,17400.6460856663,17234.2066580842,16295.6523985998,16449.5080919025,16588.1435079346,17231.3507782649,17336.0995946883,12947.6896813622,9436.75589767198,13695.8962028739,16160.1688758491,15532.7679152872,15216.9526093266,16217.1436132583,16153.1881087797,16451.4254893118,16488.2585973369,16991.1333635844,18223.0548535256
,80,15686.8610646433,16778.6498023143,16230.0138679245,15353.3221048355,16126.7568948439,14786.602415263,15103.7734094268,15991.5352896591,15943.9891859192,16433.1868088165,16514.0178623403,16167.4973481232,15941.9860141196,14809.5867017979,16690.7098747488,16571.5076061338,16604.1688073382,16446.7660990451,15383.9917612052,15801.437439429,16151.8316014224,16706.9773863633,14769.3195415218,15606.9555206984,16509.7224549798,16745.5738815841,16349.3739265063,16374.5891178695,15476.5351094765,16252.8456255211,15734.0523236787,15642.9402445853,15919.2230018733,16652.1896483045,15055.6946522657,16859.5964365546,16629.9807322336,16244.4780868817,16025.6446450697,15372.1029619029,15653.4203462278,16092.1899358692,15867.1610195617,15176.9359851055,16503.2264453123,16265.5844376562,16680.1587970622,16476.384991879,13994.8334623127,16138.3687553622,15760.1635072621,16219.4232758317,16360.8008104264,16400.5040230751,16994.149203715,16264.449510011,16585.6623047671,16563.2537379287,16572.7392496147,17199.6525704183,14764.3777407064,15367.0843986103,15789.6185091193,16137.671587483,16991.8127927108,16530.6541930524,16623.6231454597,16587.8801353112,17055.2093194432,17437.7642930271,17183.9058133951,17463.1977442449,14520.7417532085,13691.0264850323,14671.177186908,16298.2439254872,16848.8615084838,17180.8195305112,17017.4083754765,16089.2092079718,16243.3915886362,16393.9921717188,17029.3979497857,17134.7856584207,12725.3058718412,9277.39602991171,13481.3191950045,15957.0833998063,15337.3658406734,15023.6244830551,16028.9136441952,15960.698660758,16255.8322838382,16287.7824480738,16792.238241173,18014.7730820266
,80.5,15506.4069950235,16572.144243172,16029.8360653668,15172.8532717833,15929.9455697343,14603.4884049172,14916.6662031049,15794.2557322491,15748.8230193967,16231.1785127437,16316.1268977265,15980.2962682593,15754.443966839,14620.3690720743,16484.1525464026,16364.1091412525,16392.6355858976,16238.2626555596,15182.6736479112,15622.0207106047,15945.6611101813,16500.5321024811,14602.0453751495,15422.8127011696,16307.6124732717,16537.2451515828,16146.7500966213,16171.5973876612,15293.1289801386,16051.4687554195,15525.4225487881,15431.6150180384,15707.0159193333,16443.8565560139,14869.188679654,16645.9225550209,16415.0134891904,16038.9463720027,15825.4996635319,15164.3307224573,15442.9785002551,15875.4056087224,15663.3689926252,14977.32959728,16293.1383321835,16060.8013386237,16470.6975371443,16261.9366638452,13811.6238636383,15929.6966413127,15556.86450198,15990.0656439009,16130.3955925692,16170.4328587684,16761.9985810931,16047.7124557221,16369.5685911316,16358.7911137033,16367.3542849072,16995.0321823635,14563.935449215,15162.6513675979,15577.3414911933,15930.3911090395,16774.081158626,16315.8974514604,16411.5996891819,16376.5437285693,16837.0585977891,17234.1679532249,16987.5861711896,17256.113810575,14330.1709365364,13479.876611028,14455.2960083064,16086.172134308,16625.9977926493,16960.0302590697,16799.5145711913,15882.5169078252,16036.9905998586,16198.0869987066,16824.0877349835,16928.685839853,12502.6870637473,9120.84290537513,13265.7443789832,15753.0117624177,15141.9085107956,14829.9017717747,15837.9744793906,15764.9196770078,16056.4022979154,16085.0480078996,16592.9448858624,17803.6285881805
,81,15327.7677230322,16366.9912716595,15831.5075063358,14991.6205541376,15731.8579772285,14420.9745147216,14729.1900858809,15598.5396823171,15554.8831635149,16027.019295014,16118.2911278146,15791.5802755577,15568.659373861,14431.7040193939,16279.2955581207,16155.5393734256,16181.3417967892,16030.9124433339,14978.867229728,15426.8016125619,15737.0806526042,16289.7381882703,14429.9575219474,15236.9509533029,16107.2869001298,16330.4564201014,15946.0627167075,15969.4775295367,15109.2802011789,15850.2142940802,15311.4657836002,15214.6899633871,15490.2659716346,16233.5560882872,14682.4196899182,16432.222716142,16201.5003088199,15834.5096744467,15627.363393798,14951.7266660804,15228.913226552,15653.5391035252,15456.640778654,14775.136401268,16078.1117811239,15855.1463144648,16258.9077679126,16047.9981212577,13629.3709736849,15721.5007142488,15355.4774937085,15753.2403271933,15893.0979212971,15932.2499049124,16530.7699213347,15831.3228524135,16154.6441159788,16153.8496355774,16163.2549982145,16788.6617059625,14365.5504430213,14959.3998614985,15366.4397474185,15721.333077457,16552.6784535816,16099.3369433092,16199.4861286862,16162.7817174951,16617.9173295713,17027.9562634935,16790.0867015035,17044.1519770196,14130.8950775043,13270.1773966554,14240.7079160403,15874.4194173323,16402.4378119838,16738.3203628098,16581.918110481,15675.1835542426,15829.6499662134,15998.6314720581,16615.3637861493,16717.3595720463,12278.1647449453,8966.78215075908,13047.6943791691,15551.1218955786,14945.8028340122,14635.4776580182,15642.4499603124,15563.9824158561,15854.3288463285,15879.3459506177,16389.8380105879,17592.0780817531
,81.5,15150.4673073609,16164.1640243272,15634.9901988866,14810.1516878003,15534.5818621355,14236.6810362259,14541.5277853432,15402.346146174,15360.0142443016,15820.7365884925,15917.8602477197,15600.1513260209,15384.1324201894,14243.1912270453,16076.5784280708,15945.6022372542,15970.2268166987,15825.8753212517,14771.748204335,15216.687709052,15525.6294313531,16076.6539701651,14252.7184388729,15049.7591988376,15908.3004816683,16123.7442314472,15745.2824821735,15767.7754026278,14924.0843863477,15649.8389557608,15091.6915981091,14993.4254249315,15268.8067672588,16024.5712461902,14497.5826953194,16217.2312945136,15989.1838023094,15630.6838851323,15429.7995312763,14733.6335552308,15010.3037960596,15426.6975092296,15246.8584220715,14570.388703887,15858.0372776368,15650.5704676971,16047.360157587,15831.6890674476,13448.5915121727,15514.4040683372,15156.2655126059,15508.5198152595,15647.7219995359,15687.1935296708,16301.6116070381,15615.8406057093,15941.2449214288,15947.5456038366,15960.2093683697,16580.0998327952,14168.750745416,14757.1709087546,15156.9139837834,15509.057052211,16328.9852399706,15881.1438752853,15985.4742823137,15949.1138502343,16398.1719700005,16817.6637754259,16589.2712653165,16827.2315870525,13924.0190870333,13061.0902387465,14027.6881336648,15663.3865661246,16178.8287473064,16517.7237815485,16365.4099652534,15468.165998511,15621.8590758753,15797.4877719131,16401.4796166131,16500.5152872846,12049.9868185905,8815.05340988869,12827.0969108382,15348.4876007867,14750.2950860679,14440.5875181195,15442.5758260206,15358.0148474669,15648.2370462299,15669.8989104342,16184.4877879198,17380.4076359162
,82,14976.0102900929,15962.4737276953,15441.3498648419,14630.5300216205,15337.5327341529,14053.5136335043,14355.9293647523,15205.8769979308,15165.0598107464,15613.4114831363,15714.0947367062,15408.1567872458,15203.1786088597,14056.4306597519,15875.5961587182,15734.6989871504,15760.4614558638,15622.8506994223,14561.336836554,15003.2643596912,15311.4375833321,15860.9166017516,14072.1179362577,14860.2177931912,15710.8062196297,15918.8408298903,15546.2406846522,15567.2323247528,14738.607023948,15450.3871122135,14867.4738189308,14769.181869842,15044.01436666,15816.120166772,14312.878928586,16001.0809581679,15779.5206063079,15428.2163613558,15233.2238625312,14510.6015882692,14786.827615552,15195.7218092976,15032.2245939511,14361.2976155642,15635.2610028747,15447.7122894706,15835.0138648696,15615.3886457237,13269.0752246616,15308.7951489915,14958.4465524221,15257.0246321101,15395.0902169177,15434.4364887675,16075.5000133569,15402.2773414659,15729.0853941792,15741.4082019728,15755.8032716417,16369.0695792227,13973.3160282982,14556.1810892907,14949.3255212523,15293.0780001878,16101.470723521,15660.5890325306,15770.5288242257,15733.5455765021,16176.7929743615,16604.8822041612,16383.4101455366,16604.4670796404,13718.3364380089,12852.6491260251,13816.5961588669,15453.2182580465,15956.3591855634,16297.4713234947,16149.0978609367,15262.0215956133,15413.3022276706,15593.0747087858,16183.8601853102,16280.1846512917,11817.0424773357,8665.43155952981,12603.6003513485,15143.4058285867,14554.7719484726,14246.5466105908,15238.4976267045,15146.1131054751,15439.6931627028,15457.8570161063,15975.1827839571,17168.8131078741
,82.5,14804.8697513215,15763.0175323933,15250.6820955584,14450.284766562,15140.2266200724,13871.3648777888,14172.2111264581,15008.7040512309,14968.3557307721,15406.1706806477,15511.3495083308,15216.8620097215,15025.8883670677,13871.365521493,15676.1262658198,15523.1955069546,15550.6745252797,15419.5003021346,14349.7413645186,14787.5614412826,15095.6972159905,15640.1196730606,13885.932526544,14667.7202546716,15513.8992948726,15714.9993663893,15350.6256477059,15366.9590160636,14553.617729212,15251.7522298848,14641.2232330827,14543.056253042,14816.6081885295,15606.2729594231,14130.5347862559,15783.5741272038,15571.2951312363,15226.6850299886,15037.1816614121,14282.1012923745,14556.5496543082,14958.8643437111,14815.7681810922,14149.9380920325,15409.4236460553,15243.4346677388,15623.9454269526,15399.0708074664,13092.8597776969,15104.466928677,14762.6982866854,15001.6026538824,15137.4874179432,15178.118012282,15851.6196911679,15190.340377434,15519.6500236149,15534.3029497071,15550.9604051714,16156.6552407357,13777.9510360209,14357.3059813616,14743.3445070171,15075.1276258408,15872.3360191047,15438.798705886,15554.3129635279,15516.1892235811,15952.9929724549,16388.1762953439,16173.1970331821,16378.5855405428,13513.3290877668,12644.3292521647,13607.4599754591,15243.8854162777,15735.8883276846,16078.5486200647,15933.8565146046,15056.9866715191,15204.8300012089,15386.1932648598,15963.6312900536,16056.3880184078,11581.64590637,8518.46406324713,12378.2781926686,14938.6136703362,14360.1545890449,14051.741166355,15030.923362277,14930.1147455681,15228.526690501,15243.3444508628,15761.2385811054,16958.3352780507
,83,14637.3254339327,15565.1954802605,15062.4683213784,14270.9475193649,14943.0481976395,13690.1335581224,13988.2256128531,14810.7355924355,14771.6851440517,15199.8915739195,15307.0725226315,15026.7556195407,14851.8408663475,13688.5685755772,15479.9989841448,15311.8374576134,15340.5652043277,15217.1341107025,14135.3489267343,14569.3726736412,14875.5076322992,15417.350717177,13697.3305734092,14476.5170260621,15318.8003122408,15513.1120065102,15158.362735335,15167.4004769364,14369.5543258542,15053.5393433753,14412.0409019806,14315.6927923562,14588.4857020364,15396.6482115566,13947.1864704041,15566.5549851377,15364.9646034601,15027.9166025142,14842.3835369889,14047.9737961816,14319.0750056685,14713.8447664452,14598.0004547846,13937.1099782116,15180.2093238107,15037.8710250819,15412.0439307539,15181.7891799829,12917.5900992619,14900.0966508942,14568.1477998644,14744.2149550547,14877.8339305366,14919.5996403157,15630.4362633341,14980.0691668433,15310.878879024,15324.1324744819,15345.9622318923,15941.9194302042,13581.9915402582,14159.0816479955,14539.6181683368,14854.76139311,15642.3495459101,15216.0082137635,15336.3341592359,15297.1932686461,15725.2128820061,16169.3570261461,15957.3951993409,16148.5663875125,13309.1368777189,12435.617389082,13397.2892894933,15035.1616548526,15517.423482949,15861.8844724107,15718.3410912723,14851.0092740535,14994.758379884,15177.8527789506,15740.6372861811,15830.0281455603,11345.0701178118,8373.87882524473,12153.1302236266,14732.1850607381,14164.8538394173,13856.774662807,14821.2612500212,14711.3377625867,15013.9140369329,15027.5505703529,15544.8182050954,16752.077014235
,83.5,14473.6461896194,15369.566457198,14875.7790100872,14091.8635487079,14746.0120291343,13508.5852467193,13804.043022744,14612.6096558169,14571.9965100953,14990.9706593283,15099.4475848208,14836.7770489474,14682.7011070564,13508.1081452642,15284.9711784508,15100.243552604,15130.4815873171,15013.8627207028,13916.7948158234,14347.5732931404,14649.2827053677,15192.602330076,13507.7073797583,14284.3359482208,15125.0361993346,15312.709253426,14968.1479355319,14966.9677044809,14185.1237677768,14856.1311000055,14181.3561168599,14088.0582905272,14358.2557690427,15189.2414111352,13763.8237476094,15348.2084210683,15160.0166093454,14831.7647209829,14647.7557930109,13805.0703310536,14071.7507956957,14459.1926850151,14379.4589402257,13723.4115743562,14951.2189679381,14833.1002442709,15199.6510507207,14961.2023448598,12743.3106743361,14696.8811585944,14374.7126249339,14485.0094129451,14616.9240811481,14659.991077973,15410.0135806391,14769.8077887052,15102.2150559982,15112.1394392218,15137.283625575,15724.638010006,13385.9239264413,13961.7861094516,14336.2335561653,14630.4819197179,15410.5747055362,14991.6238452891,15115.6951004501,15076.3282677016,15494.4078397939,15946.3232698473,15736.2495822755,15914.3782750098,13105.1013143873,12227.2468918973,13187.6127278771,14826.5668779094,15299.6891507501,15646.7214958707,15500.5246220495,14643.4035914472,14782.4343080768,14967.5167259443,15516.5542957991,15601.4551249959,11110.7733301835,8231.533028524,11931.6000750706,14523.6989286708,13969.1859619264,13660.9946608058,14609.6715238103,14490.8382575044,14796.5359106632,14810.2436143396,15327.0131633693,16557.7872501686
,84,14315.1509027442,15175.8492461376,14691.784184256,13912.9021050252,14545.7003133408,13326.3638121084,13619.243217972,14411.4259069158,14370.1750407292,14780.7080350309,14889.3346274545,14649.4372453805,14528.4273557697,13329.4386126803,15090.8597887189,14889.1177380974,14919.9339455489,14810.3717040677,13692.9113323897,14120.1664176189,14416.1756911908,14966.7048241507,13318.5267691456,14094.4903207623,14931.8160907717,15114.3753655018,14780.1083018368,14765.9631286833,13999.9775886712,14658.1793000384,13949.7027965941,13859.1855655614,14124.7058842729,14980.8599327618,13578.7836607296,15128.4923322724,14955.2428163097,14636.9826541164,14454.3418298271,13551.9206958454,13813.3026547757,14192.3104117607,14161.2199706575,13509.4767280535,14721.7023942075,14627.316350715,14983.661972048,14739.3035820425,12568.6928914924,14494.7281792847,14180.3711813113,14223.7581415773,14355.5184779008,14398.8074902636,15189.0116622064,14560.5803062169,14892.8956205821,14897.0129034748,14927.7147764446,15502.6030651533,13187.3101558495,13763.149827045,14130.7422820159,14404.2722758562,15176.8195398086,14763.8020662853,14891.4852889914,14850.8484967719,15260.3397291482,15720.2610639046,15512.9557592489,15677.7593039533,12900.9861373367,12017.9754581608,12977.5496261523,14616.701177663,15081.6027985689,15431.5853055854,15279.3754078858,14433.7318291078,14567.3487181666,14755.373441299,15290.9532023851,15370.465019971,10881.8837187948,8090.92125221132,11712.5916632456,14313.6802365874,13770.8598924433,13463.6448343437,14395.0978756361,14268.763788533,14577.809205871,14592.8388797374,15106.4141195701,16372.751779213
,84.5,14173.9937845594,14982.6735980676,14508.0410613124,13730.4843037763,14343.1485821016,13143.1294481345,13431.691535453,14207.9669986703,14165.6207862047,14566.3164712545,14675.566397098,14464.224772972,14386.2291053683,13151.5664857821,14897.3132044941,14676.13968222,14707.5627777245,14604.3955023165,13462.9669719349,13885.7531195902,14174.2076869017,14740.4394400277,13129.7969087922,13907.3848543639,14738.0191937511,14915.3816376983,14591.8181593374,14562.6912239343,13812.1491253164,14457.2978590149,13714.8560046947,13626.1391713648,13886.1235994319,14770.4690023962,13392.2081278322,14906.2994474555,14749.6142343483,14441.3457692961,14261.3870137633,13287.7153916985,13541.6735597518,13911.5749807453,13943.7405222593,13296.3678149221,14489.845455884,14417.2379748396,14763.5508882375,14515.2966563854,12393.1048287228,14290.7809861355,13985.5639304496,13958.4670749673,14091.1509803104,14134.605434051,14967.5609899489,14349.8449602923,14682.1949557782,14676.4667804073,14716.2788510775,15275.6607056832,12985.8145286768,13561.0033750478,13920.8703367697,14173.4958444932,14940.795495169,14532.2651172189,14662.3568708573,14621.4611684459,15021.3345612748,15490.1725543927,15286.032142368,15438.3965958944,12694.3260651605,11805.8081332807,12764.537972954,14405.2006236057,14861.780781247,15214.721603075,15054.7288624951,14219.9571027643,14346.9631418904,14541.1756918821,15062.4473506338,15135.3743054184,10659.2125843223,7950.91949317967,11494.4187670631,14102.4061231252,13570.6128400236,13263.2855011139,14177.0861001549,14045.9611254698,14356.0242963718,14374.279507064,14882.5023657123,16193.6690816537
,85,14046.7764245378,14788.3249491016,14322.8831214309,13545.592698282,14138.1126657605,12956.8496540421,13239.1826621196,13999.7328097723,13954.6856864511,14347.6721030647,14453.9696707608,14278.9186421988,14252.0440072647,12972.8641380949,14701.9258318454,14461.3857152414,14491.4517564245,14395.2332373669,13225.2429621858,13643.2336802224,13922.7013142646,14513.0093548245,12941.6537095042,13725.6463514646,14542.2232157471,14714.6207381199,14401.3259694102,14355.4602464635,13620.1036979921,14251.6095366721,13473.7750191117,13384.9099359032,13638.4982326249,14559.0896136807,13201.333818588,14682.0111287266,14541.342553762,14243.9850009532,14067.2317864639,13010.6968295881,13257.1469501326,13616.6275868493,13725.5839270688,13081.8956481048,14255.9983431543,14203.9708491885,14537.7511174172,14287.6379676499,12212.6907243122,14083.750057726,13785.1290853097,13685.6616430607,13821.015558729,13862.8261246021,14743.5379427203,14135.684534839,14467.8679206964,14449.3533725299,14500.0079255766,15040.859214007,12778.7568322691,13352.3893508859,13704.7094246066,13935.6928071875,14698.392267575,14293.8939662823,14428.3832055287,14387.1115608352,14777.9080425891,15255.993410814,15055.7600691464,15193.2587768486,12482.9081925138,11588.6027568458,12544.9195767929,14190.7536018955,14639.149383796,14994.2244944348,14822.9212663945,13999.9377904179,14119.1829758015,14322.2035696504,14828.3963792811,14894.4694647098,10441.4013645048,7808.76958223942,11272.436319715,13886.0810984437,13367.5134245705,13058.2664784351,13956.297803029,13820.7283484579,14129.9880144045,14155.38048115,14656.0467648712,16015.4812339526
,85.5,13928.9937762815,14591.2080373881,14135.0047389677,13355.181772627,13928.1480366142,12766.4473072503,13041.849417062,13784.8305809875,13735.8911534489,14121.1582341173,14225.7362641735,14095.1737074475,14122.7702092125,12790.9324676767,14500.9095505293,14240.8560592183,14271.4535070029,14180.2758083626,12978.8371944285,13391.9410132496,13662.0809262962,14284.3234765065,12751.8057220479,13545.4298335842,14341.4731315742,14509.5702192162,14205.167424706,14143.0091242884,13421.4935774815,14041.6926178226,13223.1243096879,13131.0967263372,13374.8028666124,14342.6665782935,13006.5975071514,14452.5481989574,14327.2473402351,14040.7398362215,13868.3321470839,12720.4930491925,12961.9784283186,13310.0715200534,13504.3575560957,12863.796760985,14017.4921300117,13985.3956836851,14303.8415560653,14051.7083125003,12026.805124541,13870.8368060804,13577.4328346252,13401.2472705178,13540.0183981665,13579.3572182519,14514.3304568573,13917.3895205705,14248.1174658105,14211.9898614332,14274.4249867128,14795.0835814493,12562.5707422556,13134.1979839024,13477.6055799581,13688.133243955,14445.4527827451,14045.4235973609,14187.6973160507,14146.4789619338,14529.8071649665,15016.7481327458,14822.1618084927,14942.5569946572,12262.6703309346,11362.0939597279,12316.2403461433,13972.3632643564,14411.5841545507,14767.5696464708,14582.2336714041,13772.5780864403,13883.8265659536,14096.2312684565,14588.2127131439,14645.2174214186,10224.1872670932,7662.56241027194,11041.3667999438,13664.454600775,13159.4302768552,12846.9434984958,13729.4778644163,13591.4067322156,13900.4791275143,13934.4356886263,14424.1274819425,15829.480318815
,86,13815.3496467323,14387.7937470798,13941.6700068279,13159.1190972723,13711.640391262,12571.6046926559,12838.0421409491,13560.6987007283,13508.9241565972,13889.2281246371,13989.2334810205,13913.1637213027,13991.2339956459,12602.838459203,14292.4492801556,14014.6263296701,14046.0961002037,13959.3117233471,12724.6541036359,13132.5768523795,13393.3389293338,14051.6469215374,12558.7860879934,13376.0420103228,14131.6942443884,14296.9433172065,14000.3901164454,13924.5663741044,13216.8962885439,13825.7620875805,12956.2902015414,12858.3052282603,13091.1996389547,14118.1685637369,12805.1592160996,14216.4229951537,14104.0558141005,13827.8897351332,13661.2844333531,12421.7405859406,12657.5898005385,12994.2161446603,13275.4971081068,12639.6004126763,13769.0972960599,13754.4867825934,14057.8905921148,13804.9786717371,11831.7626408014,13646.1361392216,13357.9737443362,13097.069086981,13238.6798351991,13275.490735824,14278.4537765798,13694.0229693279,14020.1419438775,13958.1978124003,14035.0470680754,14530.5695610548,12331.5966693707,12899.4845864214,13234.2963296933,13424.7257179663,14176.5674142973,13781.2263891225,13937.309805401,13897.6033383376,14274.6816594288,14771.9788553003,14583.0278468874,14684.4395868335,12028.7441685559,11120.3500514656,12070.4811079094,13746.9301820873,14178.7530419575,14533.0294524867,14330.7282231427,13535.9634414879,13638.074796185,13861.4431391687,14337.2593662538,14384.8221980315,10000.2396665951,7507.79612274234,10792.0530749495,13434.8907742606,12944.1288426347,12628.7333311401,13496.141725043,13357.0995322752,13662.9620626881,13710.7693263835,14186.5176238208,15611.5833708496
,86.5,13697.4972690395,14171.4898412661,13736.6028341801,12953.6783324605,13488.3930367219,12370.7399473996,12624.5231397586,13327.0975288323,13272.1894157302,13645.8110666568,13741.3625083701,13727.7712697987,13830.7245386314,12404.9486283041,14070.3276809871,13779.8680391265,13813.4335158706,13729.6395462653,12463.4634242643,12865.3000788002,13116.983695782,13810.6992074349,12357.3930175742,13207.2086485622,13907.0958508467,14069.6136790874,13781.8257857297,13698.5519915517,13005.9119934231,13603.497725304,12664.4776464595,12558.420851028,12780.1333856998,13883.1196797755,12593.241224297,13968.4528439732,13864.7760522267,13599.3950036987,13439.2355409545,12114.9738237102,12346.036641495,12671.537896891,13032.0069198011,12400.6175857227,13505.038249031,13506.5340017629,13795.964412241,13541.2787044932,11622.1959385818,13401.8602583452,13121.2138954491,12753.9253985922,12898.2179762372,12931.0748816574,14034.3148845062,13459.9913333206,13781.0784599926,13683.2321900331,13771.3661074351,14241.885474129,12080.3227833452,12642.2753518519,12968.5260280889,13132.275826865,13877.5484941763,13489.0190752643,13676.1520322437,13639.7983402273,14008.8956862136,14516.4374698721,14331.6478125957,14413.7933446871,11773.7596517073,10856.0416092664,11798.2057058113,13512.5207752956,13938.6750482485,14288.218641782,14064.726045939,13286.3453628949,13378.9044676357,13610.372588623,14071.3091178549,14107.5362342152,9759.75113489654,7338.11174121379,10517.4698734027,13195.9410614873,12723.1025743598,12401.7155956901,13252.3895904945,13114.0296743368,13413.4190966266,13479.2001296435,13938.72477025,15357.8708483494
,87,13541.1877630356,13936.7821199071,13515.476130441,12735.3833841505,13252.9545308844,12157.7680660959,12398.660531385,13078.8608178969,13021.3436306945,13388.9335384216,13479.3798799184,13532.6065428176,13636.8852162134,12191.4533153365,13828.566813719,13535.7155299471,13570.8595085477,13488.4003764707,12191.5567156436,12588.5408834893,12831.4177911504,13551.3119652581,12138.2965439614,13027.6034177097,13660.9842000099,13822.5044238366,13543.8430057365,13465.1857627306,12788.2255008669,13375.8283753069,12343.3735310969,12226.476736734,12436.2016683983,13632.2546557509,12365.9050793605,13703.6930452852,13602.3996062156,13349.4748600641,13195.8964300125,11797.644826913,12025.8990010329,12339.9006156333,12767.8817265258,12140.9348393098,13217.4356304735,13235.5659034627,13510.5674769403,13252.1801167591,11391.8518704403,13131.52664326,12858.005003904,12358.0006059296,12504.3468897335,12530.9168066374,13775.8407741521,13211.3938332049,13524.9067488807,13379.2623881903,13476.584315389,13917.9371909321,11799.5214126031,12352.8255999306,12670.6301608523,12804.9335571679,13540.7824693253,13159.9741385035,13397.0196550363,13364.5374611311,13725.8291789754,14239.4973518225,14057.1421931841,14120.5559581965,11487.5251125815,10558.2635913745,11488.3283844804,13264.431579497,13687.6011573129,14029.1394038199,13780.9118726365,13021.1311301175,13101.461128248,13331.8770260152,13778.2990198198,13801.7073414026,9491.2973583325,7146.13905513736,10207.6794407037,12944.1391495851,12492.0854480424,12164.5204198455,12991.0831827331,12852.7435419797,13144.7047876439,13228.4023409157,13669.6081652094,15055.9371536089
,87.5,13341.439031625,13678.1109439803,13272.5058696419,12490.9340637696,12991.9915191274,11921.809303479,12151.5669951876,12805.9948446356,12747.236717326,13100.3594040348,13188.0952039446,13311.8161682145,13403.6782632436,11956.4475323486,13559.8718780506,13269.4850382993,13309.5129597219,13226.4305564679,11897.0769395375,12286.2071448896,12520.9693700281,13247.6866339788,11878.4575577766,12804.3406380932,13384.549982107,13546.5325182873,13276.4175838312,13220.2971144032,12560.1708308141,13139.2075849903,11979.8890771413,11850.4188125891,12045.6413635094,13340.7662185062,12101.0990280967,13397.9084907808,13306.4337390906,13066.1120503818,12919.7608380339,11455.3314181001,11682.5534057409,11984.157391152,12459.5626147527,11838.8651275894,12879.7864434206,12912.9059415549,13175.6359882706,12913.5658285916,11130.4057620269,12819.721396341,12556.9393271204,11900.8202136993,12047.9840415649,12067.2860404614,13487.142709592,12929.4500071825,13228.9582623451,13025.3112824167,13128.8437297899,13536.1863563406,11477.7522767681,12015.634569151,12324.3413810046,12422.5323522537,13148.4256121561,12776.0265244374,13075.4867713434,13050.2184661892,13400.2799594389,13909.0940227838,13727.2882976543,13771.7331959605,11156.5796031275,10214.2451238822,11126.3098045471,12987.2775743605,13411.7365845245,13740.5986935157,13466.5662894265,12726.708413775,12791.5853500505,12995.2743068318,13428.2525137985,13434.6474737418,9179.63933181652,6925.66478416605,9851.51619791337,12667.789350795,12238.784523812,11904.8951492704,12686.0833146727,12551.2083565424,12831.5292336123,12924.1882896526,13344.1588194655,14666.8155258787
,88,13093.2079589331,13388.8453802987,13000.0435436664,12197.3818910497,12680.8650710096,11640.9738740657,11860.1647280877,12483.4726708519,12422.4596757687,12732.8566131884,12820.2820819166,13008.539437863,13119.3447078205,11689.1006202318,13252.5391582339,12967.8512343528,13014.4101367749,12929.311874068,11559.1484364456,11936.2320665234,12159.7240865138,12837.1705165958,11522.207882212,12479.0351874691,13063.0221902495,13226.6412749019,12964.6375256819,12957.4169379992,12317.8875755801,12887.4254861242,11554.8714016059,11408.8398394047,11585.8231701732,12966.0140025622,11761.3461381166,13012.1377119223,12963.4632916954,12733.3353181529,12594.6442353128,11065.1094041419,11291.6793491112,11576.5131493215,12056.7337578024,11447.6613856186,12439.8893821663,12503.4159778383,12757.770152513,12494.978359719,10823.3076984436,12449.310142606,12199.1767297823,11373.2122313238,11521.1663025062,11531.2813209303,13139.9392038473,12582.1647109141,12860.9225126354,12593.374641388,12698.5007221474,13064.350098267,11100.6087084725,11612.9024916029,11912.0005011961,11955.8475296638,12672.1622985943,12307.8880464469,12677.8811649847,12661.1513181399,12995.0178147524,13467.3115669863,13283.5936391493,13308.8483469763,10769.716067215,9819.45589253297,10701.5074187565,12654.0955307329,13088.2783891075,13395.9894206946,13101.1402033418,12384.0715872595,12427.1150110413,12539.7548199766,12961.8221396099,12948.4144077933,8823.33177817999,6678.82021135372,9446.75660596206,12347.9744690578,11946.9798766337,11604.4462960638,12297.5805040814,12169.6735334342,12431.3881213169,12504.517925325,12901.9489669501,14129.9425460532
,88.5,12773.6142130575,13040.8015234135,12671.4903697156,11820.6886741329,12283.5323288327,11282.131281077,11497.8440104318,12080.7952027776,12017.3570532117,12240.321920434,12331.0950317607,12569.285710561,12753.5358218527,11358.4880272858,12870.536141883,12605.1321834148,12660.6392349107,12572.2282266266,11153.2884962107,11511.9181138199,11722.5113357913,12257.9647257941,11016.1845274874,11963.6622491394,12660.2062943388,12823.613198833,12567.8470208135,12657.0026401448,12044.4806345893,12602.7578396337,11035.485908815,10867.6600383179,11020.2428641467,12465.8573935544,11311.1463272269,12499.6850414373,12537.6034165976,12313.8659602708,12179.8630571881,10611.4126259376,10840.9791902733,11101.9411796118,11519.6681938462,10928.6973693146,11859.4131622157,11981.3262475416,12229.8634843708,11966.7836572373,10438.4563929833,11982.0212147555,11747.8609593627,10775.6171551565,10923.9430615124,10922.4626858139,12697.0231955735,12132.6983347248,12384.2182290441,12058.8057436004,12157.6244019141,12474.2301792464,10640.0227378622,11113.0665032139,11399.0431235899,11367.4553513556,12067.8062526111,11714.9582111859,12165.5272606608,12156.7817399241,12469.0220807785,12883.272953995,12694.0976926198,12694.6373487517,10310.0452671573,9365.05307764586,10197.0859877029,12232.772684837,12683.6772298157,12959.6756359194,12654.4644984024,11965.9314739356,11980.5067033114,11913.752528148,12319.6134387381,12283.5325758167,8422.96287896458,6412.67772993232,8989.88141765878,11954.6707214704,11588.5922081902,11233.5427254083,11787.4711633245,11671.0574360754,11909.5032960547,11913.7356547794,12278.0892127517,13375.4016151976
,89,12311.740219312,12557.9969587343,12210.0574699267,11325.0363482771,11760.9124793447,10808.7246827199,11032.7723407852,11563.0944827411,11494.395194007,11595.4097945295,11692.5757837946,11959.985589677,12236.4949428013,10886.5252812408,12329.6012278309,12135.2265926503,12205.7945760008,12109.3535466474,10647.8383784819,10980.9186205931,11174.3087067826,11465.6555220939,10320.5077203806,11218.240111021,12100.8895475585,12255.8433411569,12001.9589974389,12273.9725174735,11698.3446710498,12240.8144797318,10400.9746991591,10208.2867146692,10332.9485008424,11791.0007641388,10707.0463302013,11818.093460944,11959.7481808646,11734.2328750252,11600.0550000335,10081.4538323517,10316.0075630355,10545.4776064882,10812.1813638116,10253.2572673961,11103.3321141539,11306.793551584,11554.4579723297,11293.6192761833,9918.21013960157,11352.069327597,11134.7195213351,10139.2101772278,10286.0114878063,10271.8664266113,12103.2550370119,11529.2410506232,11741.6344290991,11389.1692730704,11478.0798993141,11734.8960198794,10044.3898017747,10462.0237215134,10726.7376115069,10629.52273946,11304.7587911285,10970.6328059427,11482.7585452608,11481.288541088,11767.5784909395,12121.8306609997,11924.2675201508,11895.8088591931,9740.58175004166,8821.61502200064,9573.41420321392,11660.7863871272,12137.0211316729,12365.7248577404,12070.5875865736,11418.7413442656,11396.846698271,11082.9320106922,11461.1923875312,11404.3231878438,7966.89396225312,6128.85976796649,8457.127239058,11424.2459755125,11100.2498558262,10736.4303491917,11107.7958454648,11008.5153267229,11215.6306978371,11119.2773296486,11438.7714872246,12371.3539733598
,89.5,11607.2922747924,11823.6680195603,11503.9651534478,10679.6889963818,11077.3433074328,10190.1029773299,10440.3295868653,10900.8054668499,10827.5839598408,10794.4607842092,10899.2532642027,11176.9735788581,11466.7048502092,10196.35902137,11531.454754987,11501.0444444755,11593.365701211,11485.8596009676,10012.4849717496,10307.4419742521,10479.8718346003,10459.9101004748,9440.42458255594,10242.9664613662,11294.1274833649,11432.0678112916,11183.626836399,11751.8394686706,11227.1516441382,11745.377322421,9653.9221727053,9436.06729414048,9529.42059379492,10891.5541845567,9907.86071185515,10916.142329444,11141.7611286401,10916.0792014503,10783.028907757,9463.42700180592,9703.82677540565,9893.40161259698,9935.10457059246,9421.6707215435,10176.1508579673,10451.7233807069,10699.6756443206,10444.848668201,9213.98517308863,10501.3701371197,10305.9426473256,9483.77263047943,9628.72859230285,9602.23594423718,11293.5230300067,10714.6119094553,10878.7526650689,10569.1073640263,10639.3880753339,10829.3001910908,9278.66334895502,9630.78089499797,9862.33837258187,9744.66397123996,10381.7563707008,10074.7085516824,10598.7052711746,10603.9417948893,10857.5992952909,11169.9197855744,10965.7889299419,10904.7386724296,9029.63233419551,8171.65475773624,8812.98197406814,10887.6303261844,11387.5192232655,11556.1854533878,11309.4915683429,10705.3015572899,10649.3310533944,10059.4370552003,10395.9296944275,10322.0311856282,7435.51271717043,5825.21144419381,7834.70237329762,10708.805702632,10439.1221653639,10068.1647351009,10242.3354967939,10165.385741015,10333.044725799,10133.2594076719,10393.3864456486,11131.9321395966
,90,10653.0499895946,10832.9636154672,10549.7001471854,9878.91196008282,10223.959537705,9418.60349292481,9721.13131205377,10093.9108006543,10017.8678435447,9867.11530288241,9981.24817697538,10243.9639076255,10451.2332933662,9299.41244541078,10486.7731888545,10680.273080782,10792.2608049959,10673.2044904607,9245.35493209845,9494.69723192353,9644.06620503387,9296.5682663708,8425.91950345106,9097.6781823521,10254.6633567515,10368.6733276609,10132.1031872536,11052.3789963466,10594.6663002177,11075.6679475397,8818.73925260361,8578.09320740731,8640.57247722974,9805.98373423398,8948.4689776309,9826.93732638224,10103.7917897123,9883.07472303755,9754.77915880732,8773.50635089266,9017.679406509,9160.5921419928,8933.1759618478,8474.96298934328,9127.33884794717,9451.55821701336,9691.27918962074,9446.12556878838,8354.06888522744,9464.96489240283,9295.49810483481,8813.08584172075,8957.10590413344,8917.69047946167,10291.1560584884,9720.70286082823,9834.95966594163,9622.13326707248,9667.55098929428,9788.02973289889,8378.18443695965,8660.97681485305,8849.43780670014,8755.22394817296,9337.97410194308,9066.41360533192,9548.78071834656,9557.27506659988,9773.82037866552,10073.8109758118,9863.18767770794,9772.09116906742,8212.16726531479,7452.82068378229,7959.39222378879,9930.93889619373,10446.6252875885,10546.0880600197,10380.4245875195,9835.60630002993,9748.81430314701,8909.86370892666,9189.14276371842,9108.56159214561,6863.29540918953,5523.10395211569,7160.44624818616,9810.76720716091,9606.02578240125,9234.45293967624,9233.73804760957,9179.11949718179,9305.44905143314,9020.6790304532,9208.60106571358,9741.69729308293
,90.5,9471.69435726545,9610.55691786637,9370.90717531444,8960.72526108069,9236.41872233133,8527.44909837097,8908.06977380661,9179.67371620947,9103.90864120575,8895.33418229214,9017.64817392416,9246.02010606033,9224.94444168564,8226.82582706927,9231.88429861634,9686.64173361515,9812.54609729696,9683.49881591215,8386.10137585648,8583.9430303576,8712.26340321148,8103.12383746707,7392.98838110485,7905.66608484382,9024.87620721448,9107.88645569526,8890.1577068783,10157.6465133844,9781.47287897484,10209.1991817229,7939.10238444396,7684.10523486603,7722.12265580046,8626.75610274041,7909.94703636676,8634.31893708395,8887.6466025732,8680.86572584061,8561.64373681369,8048.09710915675,8292.73486632406,8389.48383760707,7911.79488889752,7511.08467086602,8062.52729464819,8377.7437190636,8597.56254165045,8365.94266523987,7380.39956318163,8294.5134089339,8154.42235393168,8133.82396563422,8277.2409897941,8225.28073718294,9159.34133978419,8617.58064661729,8686.26809998369,8608.37890078321,8623.62837875559,8679.44079793681,7389.08938026809,7604.71645676222,7743.97149057997,7729.67119623029,8241.8621410558,8012.39838483084,8409.5955344826,8419.282240949,8595.94789529037,8937.57738445871,8719.82990702413,8602.20738697444,7328.36860524887,6692.18467487453,7053.63243154815,8846.21494163874,9361.20228278158,9390.46926126049,9326.22074306849,8848.29148835708,8740.13246788692,7758.82761946999,7963.44609311048,7886.44145854974,6268.94848477432,5227.30192769238,6458.73930714709,8767.48587095513,8634.99135800118,8272.12300889637,8168.81922144923,8134.42789843216,8221.7928367972,7905.3845073804,8006.38086027674,8336.02130329755
,91,8127.09586037348,8225.16726751091,8034.83647691898,7998.6568684464,8195.85818706806,7589.85802180923,8047.66447840506,8210.87280747207,8139.97786775962,7946.30658165352,8075.13874398325,8256.64605442313,7869.46835830802,7055.13830175577,7855.27463623261,8577.4356695721,8709.35038986819,8573.06164696264,7484.97797842797,7628.30689178764,7737.23531687742,7014.78161726148,6457.52718042943,6820.8517043014,7695.64188885267,7745.45936967154,7556.63986042167,9102.17621138533,8816.0070091855,9175.19586038359,7097.79672870654,6840.44451872192,6864.50467415568,7451.21248494742,6876.35589044458,7445.51181831439,7583.15951109725,7402.99979017048,7303.16782749724,7311.52569085092,7550.98083543119,7605.37088085143,6962.20999921402,6614.08360384082,7067.59117523097,7303.54215332227,7492.23389880711,7281.18426685516,6374.33384873851,7088.27010655336,6977.93035502426,7462.16205306977,7604.33237511568,7541.178659672,7985.18955450388,7489.94919517079,7520.23492468065,7597.86639336149,7583.83963660037,7588.61838025988,6391.47550354972,6551.97101082038,6640.85073593718,6763.05095401872,7199.4398389503,7010.09917788796,7274.72952273202,7284.75973425491,7421.0659814758,7832.48898455362,7612.70685838755,7485.17484271825,6433.79766894353,5932.88771638833,6159.09654672239,7712.03616392707,8207.37227234595,8173.0590615728,8218.72496176709,7809.3363590307,7692.25148939185,6719.77783907415,6849.53145652162,6785.94632248476,5674.86671037186,4941.13002677013,5765.35520419993,7651.65068437821,7593.32998754559,7249.51282080113,7133.58558075942,7115.11928971631,7168.06257469692,6906.57440118528,6924.00255032545,7094.53778310744
,91.5,6785.99724852943,6854.63621724112,6717.14002799219,7077.70825725711,7193.02284011029,6690.36689967925,7217.22162076331,7272.06781438982,7213.30188813512,7092.79983501548,7225.72245776639,7355.50896540274,6569.67631635384,5960.5304398986,6550.56852820771,7457.59176721101,7579.77911586122,7444.40836961686,6616.41632970797,6705.82000591254,6799.24638543036,6137.80105029968,5716.99275593117,5951.35809810736,6443.14271104491,6471.15645953721,6323.02758486071,7986.39412857169,7789.57528699429,8070.55384156781,6369.22414100584,6119.21670418372,6136.04408292418,6395.73426115308,5952.36263154547,6368.46908354875,6357.63942219285,6223.27630620662,6155.69543316604,6602.55484919409,6831.08815968109,6849.2126073822,6181.41444074613,5871.74125531706,6239.56041910478,6332.44142272697,6474.35443128576,6290.10961268729,5476.25896043285,6008.62888212392,5930.57713364702,6805.32550496134,6944.98373722566,6873.75024566958,6892.1658445164,6460.78779855168,6469.44306692972,6680.79101687244,6636.46752578361,6608.44089184053,5518.44253246333,5642.97339948674,5690.86900587032,5955.96959385173,6322.17872964423,6161.54777908405,6272.45521661305,6280.88439777962,6379.46985660713,6849.31157560926,6633.25682842485,6509.8318437913,5633.8936150003,5267.89829105001,5393.68765698019,6667.71559104217,7120.38301370567,7040.7636846125,7189.12242898245,6843.59955741235,6732.49026995033,5889.38822391204,5953.68171220083,5907.11225573474,5137.20019584458,4685.64993715361,5161.86192088244,6602.93013723567,6614.90223605954,6292.73859097464,6244.77959555081,6234.06939947541,6263.4259276716,6106.88885417796,6052.17261541188,6112.43570884339
,92,5705.57529023218,5759.12616985562,5665.86843944995,6279.30700427077,6319.64025079023,5911.24063833742,6482.63949614055,6442.84895909615,6398.34523383903,6361.86215195686,6497.49977875789,6573.97152353943,5554.77006083549,5120.28248633538,5539.64141643235,6455.44817420166,6552.53303432943,6427.10656818755,5862.47338456543,5907.87197628975,5990.59852730932,5507.30916490943,5193.19289220119,5335.47644899803,5479.62819646373,5494.7378217669,5383.14746244691,6933.08299617326,6816.83884324705,7016.88573646182,5774.23218362295,5540.01620278235,5555.45423623148,5586.30892377878,5245.52003324383,5533.77691652309,5418.44637177005,5328.42937094629,5291.44637603258,5967.26194232764,6179.77414661194,6169.7497695776,5593.11897496405,5308.19139966317,5602.36228212033,5554.23900949006,5642.66976592679,5489.86285483547,4811.54437653201,5206.41277050593,5155.74874560156,6181.25344599166,6315.64785459239,6239.61980214643,6034.50359388696,5668.02354543882,5669.36087696715,5922.17447492172,5856.21713343193,5815.84011235007,4878.94558883083,4978.72220075791,5003.34935916857,5339.09605448262,5649.41009283911,5505.10134703798,5497.8871860859,5503.9781100891,5572.41352132871,6053.87914964,5843.47696239784,5734.19796773943,5035.99886633837,4778.78797707788,4841.5089833581,5836.17859409853,6240.70714343643,6132.43742614698,6338.60089076377,6045.60767895061,5944.24486997943,5287.18506359632,5305.20049035637,5275.54768788801,4736.83774134549,4494.23336235201,4721.11692779818,5737.27700515884,5804.41238418015,5506.69931165129,5567.31150187768,5559.11282208657,5575.66471117941,5522.64838432568,5415.58299874062,5420.0056870767
,92.5,4930.36055666905,4976.77491182953,4916.98835846942,5662.32546672519,5642.79613605093,5312.0995541388,5880.63282577934,5768.66530698539,5739.3254932345,5756.99850608007,5891.20794495671,5919.70522468091,4844.50751190072,4541.06719689578,4837.70967633677,5660.86973593283,5729.98812553095,5617.89332628276,5275.58457974229,5286.72583601255,5361.1701826866,5099.51192685355,4864.52289521521,4949.56472976179,4815.43719416082,4823.96876781835,4741.16767340758,6042.83665404952,5991.4796966591,6117.9185604967,5318.06474501531,5105.92409696383,5123.74385068241,5029.69606978331,4761.20031465501,4957.6201130262,4772.81660310196,4719.15407196894,4706.40345130784,5434.30587367967,5626.46732095671,5598.65729434,5186.43969691873,4916.09013593282,5146.36760612281,4995.0882440014,5037.08694860487,4916.36503768176,4369.97714246499,4669.97784364459,4640.62325022936,5627.05151695466,5750.1600269048,5674.69506303719,5427.1034348561,5116.88028198788,5119.65071647276,5353.20990873253,5273.34780769318,5236.14893709634,4456.88250439501,4541.01186033037,4556.91911551367,4904.97795791589,5174.95598221361,5035.50633837188,4965.49255977569,4969.44836354272,5016.83767251547,5460.35963587513,5260.86500485851,5171.10197997343,4626.54347174716,4446.74966173955,4479.44448352957,5239.1943549323,5595.5418627081,5475.07856009184,5703.56336661976,5448.8849036311,5362.33438014125,4888.37086284973,4880.7614123516,4862.94558930577,4461.33765724933,4355.79144102514,4423.4458626013,5100.86455223951,5205.28154917366,4931.36813657686,5101.35746942844,5093.75836299637,5104.84219143931,5131.60354135822,4994.37545044968,4987.31671702349
,93,4449.72718750127,4495.0381670286,4459.04153957778,5230.66855878056,5176.05779384817,4901.54102317931,5422.89024640302,5263.27717955559,5248.41572703488,5271.66311128186,5399.64628809236,5391.92227646544,4421.43944833211,4205.95650762595,4425.43706441071,5104.53375302084,5148.4283090635,5051.41267524116,4854.58159884907,4842.1790386419,4910.84381141129,4853.0589338622,4674.39149640652,4732.98342069079,4427.03515030446,4435.15737597321,4373.74625144339,5381.1693973277,5375.13126409574,5444.2211212454,4994.87518207796,4807.55787883675,4829.65380540068,4685.44363196826,4463.73517858098,4605.70223347119,4396.79546617482,4369.83352097568,4375.07254038095,5014.02208637816,5183.02212944373,5145.25112959696,4915.5778462511,4655.36844340309,4836.20336648588,4635.15849865865,4642.20654668146,4550.16350556949,4127.11606386605,4370.02931817129,4355.86826109865,5182.14054380753,5285.16256131622,5216.86738528788,5040.33333204148,4773.66642739554,4782.58893875377,4963.36809470112,4879.221870993,4855.33117870343,4225.27084359146,4302.02076573503,4318.57436545507,4628.42178557816,4871.16339311086,4730.37335235408,4641.24164453431,4643.57532514935,4678.8841823362,5045.18281281678,4865.80809529979,4798.27319073415,4382.27267653907,4255.12954926308,4281.64459952588,4856.82162645287,5171.05810122672,5051.1913790845,5276.36004311938,5047.96958382584,4976.80125810035,4639.74667536852,4627.15004059531,4616.9849250922,4296.56438501701,4266.22069746198,4252.01789871648,4690.61693739757,4814.42713539704,4562.18008515399,4808.65360030888,4800.36386638343,4810.81221329633,4880.78420447153,4738.68312007846,4755.62951891794
,93.5,4227.78772915215,4276.63974084788,4254.9437564213,4948.53601229826,4878.73851866467,4643.56710371136,5106.05198527444,4923.62203294578,4919.78526432674,4917.84448021041,5035.72853043736,5007.84278978526,4240.07822606127,4072.63384794483,4253.35742292724,4757.94042997736,4782.45429231229,4700.78670613419,4583.9465902525,4559.53885199987,4624.12774576701,4698.1505908156,4563.11545205667,4613.58669142323,4263.85238667518,4275.41040334101,4226.102001267,4947.49789533483,4968.54166763392,4999.27661720166,4769.63432212404,4607.45289348598,4631.54707921953,4502.62624225181,4309.25876350782,4421.73933697454,4239.86042939827,4228.17240992523,4242.32391613716,4712.96648492117,4856.39934025043,4817.00621818291,4737.12095918328,4489.14304902479,4637.37726328692,4435.23325555465,4419.47870104633,4350.07466930521,4037.11753164259,4252.15646444965,4247.92192485076,4856.0957226935,4933.0381672139,4878.76271723094,4827.53599173453,4592.89898649081,4610.4428921063,4717.81992795961,4636.84406031119,4629.03428475418,4137.8718594687,4210.0066347859,4234.15319050631,4466.8783951704,4689.30003857532,4548.93359416915,4475.13964195172,4475.90448993271,4505.90561325556,4772.16874585721,4618.55163351981,4568.80785839825,4271.87610871792,4176.04069881021,4208.8635007777,4647.57371574926,4927.53662466588,4816.24748471883,5021.96020677696,4810.51743007262,4753.56639600195,4489.29617120498,4485.0782532358,4478.33187769505,4225.03259596918,4220.42276572639,4182.43641425211,4468.45393073667,4596.34738384374,4364.16080537564,4643.869836286,4634.31495691963,4647.75801751152,4709.02175974319,4578.26946002211,4632.08416403079
,94,4176.04402785349,4225.8988219721,4210.03283272667,4769.76420613375,4701.37718419308,4492.74550417374,4889.35847901479,4704.82006730757,4706.8291495819,4658.88267312688,4763.16456828276,4728.36846796704,4202.56181614041,4047.32984577996,4219.80091861241,4567.32646209276,4582.27917990983,4513.17304089209,4425.18671404912,4398.48870764028,4461.69197634497,4581.40734786237,4480.30324208106,4533.02877094056,4231.52117020194,4243.80064722854,4197.8737378439,4690.13503437271,4723.77747717106,4732.73209327202,4601.38848951828,4464.79018941935,4490.1685063079,4419.98356272871,4241.82654408869,4347.54924556741,4211.89688295059,4200.39461016149,4214.61613766724,4511.69296660497,4629.78251348404,4595.82854029772,4601.03598284477,4369.98772007849,4498.19589557362,4338.61292288599,4313.08660914644,4259.9107499384,4023.12163412859,4228.1859994285,4227.84268662659,4634.76410899184,4682.06882223726,4645.68347167492,4722.42348798589,4508.17130300526,4532.1767631264,4567.60651271482,4496.88000474642,4504.60893336313,4120.04795218152,4186.83696692667,4219.96359168425,4362.183189016,4566.2512399131,4432.91891489808,4397.64612554452,4397.95578363893,4429.12291694748,4597.87660746396,4470.62913719974,4434.17965587589,4235.63252034144,4154.71801353441,4193.9910143178,4536.53188584609,4792.39950221084,4692.25936063672,4870.04100246611,4668.9919110531,4624.00623646421,4384.59499712572,4396.22169278775,4391.2248823139,4210.49940430382,4202.00094137438,4165.11504006048,4360.95838163122,4481.72617607076,4270.49991377194,4545.34403657019,4536.23176548386,4551.77363490186,4576.14784930662,4466.0297059507,4562.19841656512
,94.5,4157.46852549803,4205.09133828526,4193.9977913209,4647.12851773978,4590.61046803106,4399.86013565972,4719.14435535661,4542.10155224098,4548.77479724868,4438.45569125748,4526.04406608858,4491.13948960878,4185.89467098285,4034.69615815181,4204.94685847568,4458.3152703846,4471.89354532118,4412.39204467314,4318.14080805803,4292.0341444537,4353.63033418185,4471.76030699993,4403.71215584924,4460.00192624675,4215.50030592056,4227.15060850514,4183.07864707443,4528.5088955424,4567.70989926335,4565.03112925156,4460.29403510571,4349.60650936999,4377.17165113634,4363.38166361473,4197.55231215648,4305.73596722044,4200.12245440523,4185.19113821787,4197.12865775654,4358.88363892006,4450.1375841837,4425.35496669943,4480.26887333518,4269.38387572528,4385.42837123652,4287.70220863443,4261.28313580685,4219.26915953426,4015.42780321388,4212.41343589043,4214.41671911165,4474.36023106633,4486.93408187501,4471.88989701771,4641.3129836577,4443.38409287415,4472.14384997643,4464.70582505957,4406.23181880976,4427.62859324221,4107.98064495216,4171.45174946946,4210.27422498575,4279.37956678462,4462.38023996211,4340.10365574482,4350.85557013905,4350.9851724575,4384.88244556328,4470.12471859652,4375.14960055177,4350.15191506277,4206.58215422377,4138.63963436274,4182.14011282027,4455.90281290447,4690.04231024343,4602.68668180842,4760.02634330709,4567.40050071777,4535.04902961298,4296.349870517,4324.91116742449,4321.64244151621,4202.50478623948,4186.83235261756,4152.07785291254,4301.18360748987,4410.20702584566,4220.19146180109,4468.87993807102,4460.66319728165,4478.14061293287,4457.9499757714,4373.73416601456,4513.09203948905
,95,4145.55257938762,4190.19092671503,4181.13986791093,4547.72153213194,4509.72977933824,4334.72748123992,4617.4058138263,4460.52579598606,4465.22501036538,4350.63764595858,4419.95781365911,4402.64090694156,4175.42179167117,4025.56016043067,4197.15409879878,4390.83018154527,4409.6689320198,4356.66732444922,4262.56382238303,4243.86067201425,4308.40845062255,4379.25109070441,4339.91019625064,4400.10796252264,4202.79938810143,4214.29914735934,4174.45791459521,4450.93306165514,4484.88537788248,4483.23407821581,4367.28318129107,4281.70212491334,4308.94443084216,4323.87485483306,4168.13393699402,4282.83155313284,4192.03703145809,4171.76839638701,4184.52062683366,4287.34017722583,4355.51854762552,4346.78159022484,4389.02089407094,4204.13367891019,4323.71195334857,4261.79475921109,4236.2576190415,4200.50878411652,4008.12933033371,4201.84104500474,4203.61210341009,4408.2159878199,4389.32235496436,4397.27742796604,4565.60827438397,4384.38347597385,4418.16722575564,4398.2173101946,4353.99867735123,4384.66891212044,4097.08308971012,4159.58657612325,4202.81462700678,4235.84887794426,4395.52042193382,4296.01990875719,4315.77419135736,4316.24500036826,4357.3809863477,4387.72123089073,4318.02301385085,4302.11498532561,4187.30808326991,4126.67076751625,4173.79377268373,4385.33936792827,4598.26463802332,4525.33764214006,4673.44870243044,4487.27076361305,4468.52492988308,4243.08324612728,4290.57975902366,4290.24877862945,4195.55110847412,4175.26254593077,4142.171680828,4263.029865969,4357.6270537102,4191.6341799075,4407.40224806811,4399.40533107512,4416.5730653796,4364.20332141629,4305.84052369716,4484.42504773907
