,Temperature,A1,A2,A3,A4,A5,A6,A7,A8,A9,A10,A11,A12,B1,B2,B3,B4,B5,B6,B7,B8,B9,B10,B11,B12,C1,C2,C3,C4,C5,C6,C7,C8,C9,C10,C11,C12,D1,D2,D3,D4,D5,D6,D7,D8,D9,D10,D11,D12,E1,E2,E3,E4,E5,E6,E7,E8,E9,E10,E11,E12,F1,F2,F3,F4,F5,F6,F7,F8,F9,F10,F11,F12,G1,G2,G3,G4,G5,G6,G7,G8,G9,G10,G11,G12,H1,H2,H3,H4,H5,H6,H7,H8,H9,H10,H11,H12
,65,53.4055792067825,69.945766768567,111.331796077285,-0.0763245389025542,3.3734378425961,23.0041927161874,-29.9742301548554,-58.0513380587322,-54.5493551214017,-27.7543087586118,-46.7712288176476,-68.6819893364577,64.4416601496637,106.088045779875,13.6951446224116,-15.1435245860985,-28.5171479446271,-45.8360616003451,-70.528692337853,-83.3424937008076,-73.6373587402445,7.75923116899276,-5.46217343858689,-44.8023890813238,60.1908833573511,99.4182559763372,103.143730525746,-64.6588935787299,-12.4620469839042,-7.20700506228286,-49.2918697587761,-47.7443924111853,-37.068268181883,26.4863159344609,53.6301189783499,-19.7730249998554,92.1879029427218,89.6470266565761,94.5258586761342,-72.2862551620642,-47.5074346129727,-64.6689598770568,-17.710210966899,-2.46726313717681,-21.0056258787263,-28.6544762705357,-31.4159653265692,-35.0117037521159,106.70168197106,106.16107464836,96.5248169025854,-50.7468387866288,-28.3516421283784,-40.0667793806997,-16.8294695168415,0.963767310631283,-0.486850411360592,-51.25331555598,-55.5312031895896,-83.4307651347872,127.975393187271,110.742082446968,117.538852243513,-14.2737377365452,-5.71660278014269,-16.0735145400699,-2.68692357354894,2.56281523367716,-4.72226986478154,-28.3693492649213,-35.1593155815171,-71.261709858918,86.357604705518,112.270382428295,118.200202459197,9.31808129010096,-5.13711507462176,5.62890537668318,-40.1286517344329,-40.2955037137549,-96.2136253914537,-31.4592712838885,-23.9960666818197,-70.960156824171,128.197058766724,158.689859394817,128.138908816351,-4.34313596446191,29.590917390432,-17.2528763112332,-39.3103026787453,-42.8096585572553,-44.3561712667247,25.7121882012484,15.6364281873393,-48.8629182227828
,65.5,115.712088281362,151.549161331898,241.218891500781,-0.165369834288867,7.30911532562277,49.8424175517393,-64.9441653355252,-125.777899127253,-118.190269429703,-60.1343356436601,-101.337662438235,-148.810976895654,139.623596990935,229.857432523067,29.672813348559,-32.8109699365477,-61.7871538800218,-99.3114668007483,-152.812166732013,-180.575403018414,-159.547610603864,16.811667532816,-11.834709116933,-97.0718430095349,130.413580607591,215.406221282062,223.478082805782,-140.094269420581,-27.0011017984639,-15.6151776349525,-106.799051144011,-103.44618355757,-80.3145810607471,57.3870178579955,116.198591119754,-42.8415541663485,199.740456375897,194.235224422582,204.806027131623,-156.620219517805,-102.932774994775,-140.116079733622,-38.3721237616151,-5.34573679721689,-45.5121894039085,-62.0846985861581,-68.0679248742281,-75.8586914629177,231.186977603968,230.015661738114,209.137103288939,-109.951484037698,-61.4285579448215,-86.8113553248504,-36.4638506198276,2.08816250637256,-1.05484255794272,-111.04885037129,-120.317606910781,-180.766657792033,277.280018572423,239.941178635095,254.667513194279,-30.9264317625166,-12.3859726903097,-34.8259481701484,-5.8216677426899,5.55276633963331,-10.231584707024,-61.4669234073326,-76.1785170932872,-154.400371360989,187.108143528629,243.252495261308,256.10043866159,20.1891761285506,-11.1304159950096,12.1959616494755,-86.9454120912728,-87.3069247131366,-208.462855014817,-68.1617544484261,-51.991477810614,-153.74700645237,277.760293994568,343.828028688768,277.634302435429,-9.41012792299762,64.113654345937,-37.3812320076736,-85.1723224706107,-92.7542602073827,-96.1050377445681,55.7097411027044,33.8789277392352,-105.869656149368
,66,106.811158413561,139.891533537137,222.663592154564,-0.152649077805108,6.74687568519039,46.0083854323748,-59.9484603097153,-116.102676117467,-109.098710242807,-55.5086175172246,-93.5424576352934,-137.363978672908,128.883320299324,212.176091559755,27.3902892448236,-30.2870491721974,-57.0342958892475,-91.6721232006871,-141.057384675705,-166.684987401613,-147.274717480489,15.5184623379841,-10.9243468771656,-89.6047781626476,120.3817667147,198.836511952673,206.287461051491,-129.317787157459,-24.924093967813,-14.4140101245748,-98.5837395175454,-95.4887848223721,-74.1365363637665,52.9726318689191,107.260237956693,-39.5460499997062,184.375805885443,179.294053313156,189.051717352267,-144.572510324128,-95.0148692259459,-129.337919754116,-35.4204219337985,-4.93452627435045,-42.0112517574503,-57.3089525410651,-62.8319306531339,-70.0234075042317,213.403363942127,212.322149296718,193.049633805175,-101.493677573256,-56.7032842567546,-80.1335587614003,-33.6589390336908,1.92753462126711,-0.973700822716182,-102.506631111957,-111.062406379187,-166.861530269569,255.950786374544,221.484164893934,235.077704487023,-28.5474754730885,-11.4332055602858,-32.1470290801335,-5.37384714710151,5.12563046735067,-9.44453972955353,-56.7386985298454,-70.3186311630343,-142.523419717836,172.715209411045,224.540764856588,236.40040491839,18.6361625802042,-10.2742301492394,11.2578107533623,-80.2573034688671,-80.5910074275071,-192.427250782908,-62.9185425677779,-47.9921333636471,-141.920313648342,256.394117533448,317.379718789632,256.277817632704,-8.68627192891699,59.1818347808648,-34.5057526224678,-78.6206053574833,-85.6193171145032,-88.7123425334476,51.4243764024927,31.2728563746787,-97.7258364455702
,66.5,106.811158413554,139.891533537166,222.663592154584,-0.152649077812384,6.7468756851531,46.0083854324512,-59.9484603097517,-116.102676117492,-109.098710242863,-55.5086175172346,-93.5424576353116,-137.363978672882,128.883320299393,212.176091559739,27.3902892448855,-30.2870491721842,-57.0342958892575,-91.6721232006939,-141.057384675711,-166.684987401616,-147.274717480513,15.5184623380223,-10.9243468771278,-89.604778162628,120.38176671469,198.836511952676,206.28746105153,-129.317787157411,-24.9240939678248,-14.4140101245871,-98.5837395175258,-95.4887848223802,-74.1365363637701,52.97263186892,107.260237956699,-39.5460499996643,184.375805885445,179.294053313158,189.051717352278,-144.572510324083,-95.0148692259186,-129.337919754115,-35.4204219337767,-4.93452627432362,-42.0112517574571,-57.3089525410714,-62.8319306531635,-70.0234075042449,213.403363942085,212.32214929673,193.04963380511,-101.493677573244,-56.7032842567055,-80.1335587614212,-33.6589390336726,1.92753462128894,-0.973700822689807,-102.506631112002,-111.062406379258,-166.861530269523,255.950786374569,221.484164893956,235.077704487061,-28.5474754731304,-11.4332055602945,-32.1470290801371,-5.37384714708469,5.12563046735431,-9.44453972951442,-56.7386985298444,-70.3186311630197,-142.523419717905,172.715209411085,224.540764856536,236.400404918368,18.6361625802169,-10.2742301492408,11.2578107534096,-80.2573034688971,-80.5910074275012,-192.427250782886,-62.9185425677538,-47.992133363663,-141.920313648369,256.394117533436,317.379718789658,256.277817632667,-8.68627192892063,59.1818347808194,-34.5057526225128,-78.6206053575138,-85.6193171144851,-88.712342533503,51.4243764024595,31.272856374716,-97.7258364456229
,67,106.811158413604,139.891533536928,222.663592154461,-0.152649077754177,6.74687568542959,46.0083854318395,-59.9484603094311,-116.102676117284,-109.098710242391,-55.5086175171705,-93.542457635212,-137.363978673114,128.883320298889,212.176091559849,27.3902892443907,-30.2870491722933,-57.0342958892024,-91.6721232006471,-141.05738467566,-166.684987401574,-147.274717480343,15.518462337704,-10.9243468774512,-89.6047781627717,120.381766714799,198.83651195265,206.28746105123,-129.317787157793,-24.9240939677134,-14.4140101244466,-98.5837395177159,-95.4887848223111,-74.1365363637537,52.9726318689295,107.260237956682,-39.5460500000031,184.375805885434,179.294053313132,189.051717352199,-144.572510324443,-95.0148692261496,-129.337919754111,-35.4204219339513,-4.93452627454644,-42.0112517574103,-57.3089525410487,-62.8319306529402,-70.0234075041485,213.403363942389,212.322149296639,193.049633805606,-101.493677573335,-56.7032842571189,-80.1335587612539,-33.6589390337804,1.92753462109749,-0.973700822930368,-102.506631111662,-111.062406378662,-166.861530269907,255.950786374382,221.484164893775,235.07770448677,-28.5474754727916,-11.4332055602254,-32.1470290801494,-5.3738471472243,5.12563046733294,-9.44453972983865,-56.7386985298217,-70.318631163123,-142.523419717352,172.715209410738,224.540764856937,236.400404918583,18.6361625801073,-10.2742301492503,11.2578107530517,-80.257303468657,-80.5910074275562,-192.42725078307,-62.918542567963,-47.9921333635016,-141.92031364815,256.394117533527,317.379718789473,256.277817632971,-8.68627192893291,59.1818347811959,-34.5057526221526,-78.6206053573073,-85.6193171146556,-88.7123425330892,51.4243764027328,31.2728563744213,-97.7258364451714
,67.5,106.828465192443,140.817926962297,224.32234886249,-0.44135806076747,6.70158004373934,45.4475349902214,-60.9566216875273,-117.912592312924,-111.578046278727,-57.0596523333411,-95.2755842000897,-139.150353517885,129.513612609305,213.323879264371,25.0902121387694,-30.7248266730817,-56.7060870808896,-90.5125194098737,-143.386746006594,-169.240144659925,-149.693482806926,15.9145772940024,-11.1287383540634,-90.0523649319898,123.362584225614,200.189590146402,206.865063998607,-128.485299776974,-24.5548526590869,-14.7955296172663,-100.193641024509,-97.0600715756768,-75.7104721968976,52.9109853632681,106.885466910341,-39.6042753696679,186.063739126944,180.11587025731,190.180402573263,-145.120075248029,-97.3294162430739,-131.265348061464,-36.1352187953776,-5.09735761981074,-42.7638501678375,-59.7859062952157,-64.7521009956754,-71.1124752404576,214.599453049773,213.55823956426,194.528121486703,-103.679339216977,-57.8669097470206,-81.4862528778353,-34.3443591673154,1.33623680761548,-1.59784920649599,-104.895438254692,-112.516583613644,-169.523170039484,256.763062662636,222.398724980078,236.193185043238,-29.143657798817,-11.8562624476917,-32.458211973501,-6.22094996354144,4.22494519608063,-10.2482657271989,-57.5750362145059,-71.6332704396068,-142.935487729909,172.573024253772,223.664520398022,236.183103291635,18.5667491293934,-10.6387516070836,10.7669077047544,-81.5069196599393,-81.3573404327317,-191.249140537795,-64.354414687617,-48.6214086571708,-142.37815743668,254.951881393514,312.659055583684,255.3009998042,-9.7839701614048,58.8249293782442,-33.6865533872892,-80.2947852928805,-86.0625295985151,-89.6047576684027,51.7608270325022,30.9821237406195,-98.3105766604654
,68,105.950877244606,135.17450279109,214.631280414659,1.52448179050634,7.39988793851217,49.8195618425884,-54.1173613980063,-106.036787525719,-95.4304638390413,-46.2714701553805,-83.7690685093903,-128.223438162629,125.134464189749,206.751679838756,39.085106088954,-27.7591121731143,-56.7953260152549,-97.2174050044596,-128.47156525106,-153.115046332723,-133.865851609759,13.8928535421132,-9.98023149651954,-87.7745846983116,105.692440731445,191.883325934311,203.18110441666,-137.192912994357,-26.4362379282102,-12.3374246140256,-90.0105403499274,-87.1224222933606,-65.8719378143014,53.8053499688785,109.653934293165,-39.6647453021528,176.339557957423,174.934030587159,183.495294410456,-141.16002748802,-82.088333597686,-119.354370871244,-31.5387044209078,-3.52054179512788,-37.89626693325,-43.5783634858376,-51.5351859700922,-64.1021781451127,207.282967963448,206.207623392806,185.561860609971,-89.881372974507,-50.1820984320966,-72.972060266567,-30.0512284872025,4.83767259562774,2.27817020968678,-89.259366024673,-103.779032292888,-153.702735312304,252.35838427685,217.303982685537,229.719212734522,-25.0783727777143,-8.61659687758583,-30.1893778584126,-0.710871905941985,10.8617367151346,-5.00565666363445,-51.7916272448037,-63.3295936264926,-140.375474766728,173.589865662101,230.108117100339,238.453757616431,19.6707306838998,-8.29410058094254,14.3665600610507,-73.3689142645967,-76.2641781357097,-198.760453562635,-55.191287775232,-44.4209447909725,-139.836050037447,264.569389465448,342.387016957582,262.36348074565,-2.22342967453915,61.577917755636,-37.857382151507,-69.1055883743534,-83.1488698609496,-83.8060978415765,49.9013307331888,33.5661418637665,-95.5417969705213
,68.5,109.644307983147,123.078672491886,190.692716223176,4.11226108480832,5.52892502319582,51.2498982208699,-45.8936119982163,-88.4417299313282,-70.5256989840013,-35.3828900069157,-68.203264319643,-107.350221956761,119.338404882243,189.690366844073,66.9454485640199,-24.7323383388484,-72.4005160538254,-114.379307676745,-104.28018191091,-124.558530323689,-110.487504926399,6.5726406576141,-6.59982281699149,-80.9440582741781,64.6918111296268,174.540251587239,196.804770614843,-125.995862985655,-33.6366250443671,-8.84640289751269,-72.4384880766347,-70.3216111942852,-47.5944785344454,50.8002221233032,111.478426952359,-37.6578511377761,151.212494394709,164.563053084255,167.113414089916,-138.12306885854,-60.2270399378003,-96.849975307362,-24.7330727315389,-5.84466315644067,-29.9691085835439,-19.6749261578998,-37.391157429005,-53.4238418023424,192.373991523813,188.959258975161,166.189123723763,-65.9211691055875,-39.7863006743264,-58.0071324270739,-22.9249643278258,12.2525633625337,9.39341299360876,-66.0752997944578,-85.0802414990953,-118.73648854214,238.69726327531,202.611686238752,213.341385836225,-20.3819450255487,-7.49398590820419,-29.3377728811124,7.57131115124503,14.513244259967,2.92591704885308,-46.2180189543319,-48.3520210346387,-137.229716950212,174.002218232783,234.260486567576,234.817411431235,15.9522805343809,-5.37657403602134,16.5658083178459,-61.4964287474827,-69.5539796393305,-213.104902248725,-39.9757588534499,-38.8677560182641,-131.126036979609,277.81377820546,395.937494094984,267.926771706671,6.31094374246595,63.0551762232421,-53.7225373731007,-54.3018292272427,-78.9784947962539,-75.0862669160392,44.0140558680473,31.9794161080713,-85.0684227427842
,69,122.635638999279,115.722104453015,171.341820873181,2.20872844971882,-0.842319209689776,43.3290485329412,-43.7587525257413,-81.8567081556462,-59.1119317732077,-33.9211188158847,-60.6139766266406,-82.738168936181,125.826015552037,172.408931251346,96.8240737735578,-20.4503805833861,-101.594452145405,-130.663378501039,-86.5089444167643,-105.300602840849,-98.1594229337902,-3.9798488841534,-5.82346024634489,-63.4108062834348,30.1487671646091,164.683384341743,192.666540154167,-86.944343202591,-41.3266329886001,-4.56688230980035,-59.1926563022917,-55.1369562500759,-36.0316163701423,48.1035768694624,108.299232073863,-25.5135704787936,129.216848924548,164.320569433815,158.734041377743,-141.062161926615,-49.8934924207615,-76.2948597694299,-17.2321915866451,-8.11220654860153,-28.6332630845709,-6.85213749944842,-33.3912164986868,-43.9285244548628,180.487343717841,176.745828258735,153.080290353823,-47.2639771499407,-32.7021219635135,-46.3878029975726,-13.9661652642421,22.4905324295955,15.231969647532,-54.6493324769549,-68.4346092872261,-82.5315196774764,223.885159371094,188.725314980621,199.837822248017,-19.6106785348088,-11.7404584047881,-26.9122025229904,12.5227386730162,12.5588124450633,5.7480732228737,-42.6688831521365,-41.5446340292592,-124.60075655035,175.269915052848,229.500058569822,227.875994065965,10.1049823180101,1.31142223195184,14.8595512734228,-52.5603817511264,-66.0794406882783,-215.705237660986,-29.3739667830168,-36.9393269776865,-133.297310582596,280.489333905189,431.317882152835,263.338118015206,5.79668513454953,56.1614775430367,-69.4176438159875,-48.7306559141684,-77.2498910734585,-69.5667802517023,40.4776173888531,25.6403425341791,-60.7568784888681
,69.5,147.777384211269,115.941387890099,162.571206141326,4.74060433813429,-3.74502463808903,37.4223037902384,-37.3097692128385,-70.3242130732883,-49.3299207169894,-27.3804672949473,-45.7040553028969,-45.9198954549151,144.965521346383,162.881764967645,135.088794158115,-10.0548325046161,-122.340758732721,-128.988558094666,-60.3690456747868,-83.9850303878429,-79.665326582372,-4.88298144239661,0.880041171199991,-23.7648353487621,12.7240591398668,168.52543802023,196.754768268277,-45.4300967918552,-38.418922198051,7.47434798291897,-41.0437330577174,-34.1628535142318,-18.1194788113148,53.1379120550851,107.735106707595,1.30940360167688,118.642133156984,176.456158568563,163.671704854499,-140.729393924708,-35.6259837013386,-46.7876389503595,0.561770362085554,5.75794504136593,-18.8408597899388,12.6903914756449,-18.743273639268,-23.1048440214258,172.866048204953,177.718976475841,150.108130933423,-21.0099527685552,-16.9459633103938,-28.5143250083675,6.88607496639861,40.8734740954496,29.8541304299288,-38.3395506681295,-41.6765317757649,-37.558072534388,215.013481312825,180.41908995045,193.815396162108,-13.001967391167,-7.09065054246594,-14.5372026027003,22.5697301612536,20.2212519312698,16.9141742177567,-28.9430749612688,-29.1098256833061,-93.115221476914,186.571212408999,229.956577607846,232.457275188739,12.1383989734777,19.1814914556344,18.9036092386136,-34.2459838278382,-54.8263124176819,-177.907337558708,-15.0665040502345,-31.1819685373689,-139.222830071674,284.748939827593,460.314483788278,260.681154229339,6.68094259487771,46.4225209343931,-76.0922724728171,-40.4612056962114,-71.3822484556094,-58.2109115332514,45.121106185416,27.3593552273196,-14.7626798025781
,70,184.359309224519,129.007311971052,167.933067350641,16.1785785072329,9.36950016700348,41.4031418742698,-20.4662390033745,-42.6322061479427,-35.6962952381546,-18.7198508500655,-19.0714101138979,-1.98360292944153,174.393319320293,164.560449852514,183.748125415227,7.93779435710758,-123.053838838438,-84.4632420053704,-25.1741193716575,-51.5364993963162,-51.0598865055035,9.69856253082071,16.3666992701442,23.9341388696007,17.5117557359704,191.582852983247,211.52985609386,7.09516410175729,-17.4750501620788,33.7487573007411,-12.7900493964798,1.07502006865116,8.11202258727462,70.049843071783,115.479675766037,43.4665745030784,126.046983664733,201.514302711942,177.819790637275,-105.279699086028,-9.3367764989971,-4.57879831786749,29.8897580284856,32.6481627804337,10.1619401234384,46.3669267128398,10.7488062501907,13.9428884773024,173.455128703221,191.559528317606,161.908431487442,16.5131166393558,12.4812183498993,4.9425931585015,41.476230078149,69.8360912925677,61.3414393262819,-12.1665425314986,-1.36980332890198,18.6924292271751,220.018211531086,183.501545179006,199.21893387924,4.62052907336647,15.6270372437202,11.1546087464417,42.9201775708539,38.8669375326767,46.0653870135366,-5.2607606800043,-1.33808719759554,-40.0847063737219,207.654235444765,240.396303109002,246.895879970467,26.5230409161468,51.2067524677741,34.1201945156795,-0.799883465780567,-27.8853578610378,-103.953152302908,11.6425109364377,-15.1241000483042,-130.216518164405,293.587552470597,480.539436878163,262.203975313729,18.6533257205497,45.8782216132331,-68.0301210439029,-27.287482529724,-53.5144123042228,-34.9263531256579,63.0145753387792,42.8271930294227,45.4809585036696
,70.5,226.046925751236,158.486732747302,194.264151787353,41.0692295515364,40.8607894278302,58.4021717776404,13.8579784338772,0.641792245176475,-7.70141894848894,-0.0338745345557072,14.5159148265184,49.9926401205139,214.078530299965,179.387936285737,229.924743352596,42.5230539517916,-100.846241189043,-8.7381060574603,18.4800949212236,-8.71144578244503,-10.6158693839734,39.631932047082,41.284366884835,74.8335245839562,59.0508720092648,230.557360968507,235.459494640458,73.4425132142969,22.5646306318904,75.5627121408274,26.2534981556782,52.1946466145569,43.9534146681963,107.197779666445,135.208240125105,98.701504010256,157.100448536936,240.445457834699,206.309044591012,-34.7528706637286,36.2333207263459,50.7347767827227,69.2230245432024,70.9280903526246,50.0407730022798,89.1706983038866,56.6268344373066,67.7956208161208,188.159574910627,221.092440314864,195.130447404077,63.577018758795,56.176745396237,55.709703028162,88.9204524068959,112.263444255909,107.585258738603,29.3293519526492,56.8902336379128,82.9504890068047,236.44066297035,203.980246531514,219.964827151215,38.4104417693879,54.7394474791722,55.8613947013614,78.5182534212822,75.5950753813308,88.8901416871031,34.6355566379161,37.6130856445802,27.8136474461962,235.854398604241,259.818954831233,268.379282553779,57.1956184260048,97.6231223303216,62.9875726669206,45.628516028482,16.152998987066,-17.1693675713386,51.4439330680198,18.9985875784641,-104.903944532325,311.67894234195,493.509256250537,272.38174825982,42.8587346421687,60.0267815393313,-38.8914634090643,-2.25016968661748,-16.4384988508691,-0.0919702074238558,95.8678756838267,71.7687929554163,109.540512558377
,71,266.756290738782,195.238040327423,235.207052207232,80.1270650318315,87.5641120750611,89.3364074957217,64.7963115642438,54.4138867418337,34.4602259410185,40.1669000082811,56.9856931455552,105.800663480532,257.51064673227,210.976678522647,272.474644832943,91.8340794689302,-35.5298196860217,70.5454124455086,72.0695676798132,37.6772460127468,42.2675445646605,83.9561894947078,78.0613771898088,131.0435414555,132.798438544125,276.502101187563,266.042779493626,133.188045773632,74.9555251092302,124.612232054995,58.4299351444552,107.256197259617,91.4204958258092,156.633151568802,162.645534237132,157.434707676854,206.929140302834,284.470419672942,248.759653834581,38.7096567492572,90.1242055003891,113.384928380546,117.220676847793,122.949061828165,99.9783985123495,137.917997501219,115.442006132806,130.999330777633,214.793896642286,261.983754103338,240.998923746255,114.52737081525,112.196948355746,114.050399921544,127.959230432025,163.41410942046,160.447633319015,82.8464397001612,121.591288069737,143.759755725292,262.369644370199,237.809112683951,255.279075731301,86.5504540785128,103.360652398648,113.97753670357,125.818853939005,126.937047653042,141.291710727688,87.2170773081893,85.1797443469268,93.9745157865805,271.973414258818,289.516864765479,302.235201007492,103.247205968869,151.340505876069,104.134134641639,99.4695691310803,72.7696668579247,74.3018833950696,96.3177778790696,69.4071674406432,-75.4508779419134,340.774079546341,500.266678893096,292.239875433003,78.5519327939155,86.0388811605048,12.1513583661058,35.6421064724077,35.2152151789492,44.1539690888148,137.877285218501,116.601875416842,174.130919163122
,71.5,303.592455863388,231.833420691922,281.097662774207,125.919688462648,142.995896918959,134.118692683714,120.879160585292,113.789887249738,85.686451281113,91.6184326089187,108.21049218602,155.990132597592,296.35219595562,252.605480126503,316.73498643149,144.234045941214,60.9563795044751,152.254576762947,125.155391848286,87.8885506085235,98.8441290928895,136.221012373258,118.887124775395,179.62468187845,212.288306078681,324.260703570103,302.250250043441,180.477338258382,132.506904382331,173.756205643411,83.3607584230549,160.10783384346,142.840458795537,206.539199106994,196.960488105875,209.592196697928,262.406721479106,326.619130228651,291.199635481525,113.868853886095,145.140328299573,174.484888990378,165.50692938979,176.644404645202,159.147824825239,194.19808313055,179.561440336632,194.702950351876,246.878763386214,303.510802109557,287.341625172674,165.934336493289,172.150369622533,172.741256745916,154.657232915871,213.149015351593,212.29825724264,141.457834128029,179.681860491745,198.11006009988,299.836936357372,276.978540760917,298.020507777122,139.441833455684,160.462123116293,173.083031698249,175.761706768391,181.168581819785,199.836122148831,141.586764077783,139.333621019163,155.408394322442,309.04811254311,327.036393132537,341.431480342397,156.08018308786,204.823307635964,154.517917472009,158.464084473519,133.286258953426,158.070696978554,143.364450768076,124.768208816438,-13.5830814381384,374.285773184129,498.381922213106,319.99270615759,128.195396408885,125.510007907275,77.7015782878657,80.268623724854,88.6831819244499,94.5526401900738,182.272733538886,169.563028253217,230.865477065346
,72,331.519304431272,267.404287771932,326.258361773246,172.120250016141,196.498175632489,183.763503276856,177.606383619499,169.177430042489,143.315658807379,139.859071429533,154.732243741869,198.136474719679,328.842631943841,294.497501339495,355.729368010487,196.358383094886,149.871484533919,223.728126336176,170.490878521434,137.821138961326,152.406470241254,185.907744966596,155.628288202269,212.00517355599,285.733332262939,365.776256281873,338.030815862997,226.665080635052,187.943958994592,217.840189345548,110.941049774965,209.57212391846,189.690945651469,255.196520991711,236.781192968116,253.068502624781,315.140374246224,363.352178778242,327.110853207138,188.233543202218,197.962199426614,227.065033800196,205.661279258296,221.328179660605,210.762276398805,243.77127113929,237.754086704248,249.702485184378,283.866339927778,341.671686535712,333.451738385982,200.397481844552,227.321642681598,229.360194239794,181.141501983613,258.067302957839,261.566675623945,198.637117691841,232.554773389463,243.205356419805,339.277472373308,317.059086995345,337.82301698578,194.070092167036,217.444170698406,224.712986389173,221.145232600383,233.723045020027,251.190636228922,193.887223506979,191.331837954538,210.684208150227,342.653095921593,363.117221593084,373.779727571006,205.722048953114,251.885372734861,204.397812711622,209.639182294077,189.067274413163,220.12193158634,192.274775620231,177.250742632876,77.2103459806481,404.833569914045,488.928707482456,350.643478606085,177.146287524166,173.480321950422,143.958587466184,127.941706800819,141.113139907241,142.258738571678,225.747160434381,216.005504682237,273.978652086801
,72.5,349.322683993605,295.148631021582,365.498631829228,213.135232658541,244.285969762304,230.348591300587,228.844314412685,215.004505020599,196.082236451298,189.904983506666,193.571570074979,235.807690188849,354.764859156209,331.975607769565,388.730575213182,244.320860430838,225.799482239792,269.791309036389,210.715539126336,179.42621483935,202.080064612024,228.582086443007,186.198156521224,237.259646891647,346.639497774837,396.319035981315,369.109980077051,268.093237624389,233.795992199495,240.18369311441,132.402254811688,251.226159015303,233.454310456245,298.854435103446,273.101360352797,287.140989557643,360.866005555748,392.940822353621,360.394607498446,240.622545748065,243.185483860296,269.652518387461,237.942701225746,257.070392695175,249.262416594939,279.889026580042,288.366685791519,292.025131252154,320.263425898023,373.298834602519,373.70496913146,215.627237541221,273.53106550383,275.908828881174,202.726387645958,296.948392089532,302.670078313448,247.252722227156,275.084742297269,274.330782931606,370.759630825352,354.252961533112,373.195372113207,245.564450667972,261.876067796504,271.410115249437,260.218574734461,279.310523920384,291.040670626071,240.731171903749,234.875298670119,250.470324098403,369.199922188648,394.391066911986,400.886871077634,250.219720457025,290.566812401354,248.954724695162,249.527961854574,238.785326789568,260.802675396465,237.540005243633,225.741853373322,153.964800423332,432.231134074528,475.158070895721,379.312782676334,219.33207139307,221.632987997404,202.594364842191,173.903454580251,188.130356692998,182.279048317163,262.246196077348,253.235054575894,304.948207293752
,73,361.322402986329,302.820733607517,391.625978641389,248.860751820793,282.414158871845,271.598437049709,267.695543031536,251.927954350178,238.634186482588,236.717536598701,226.376965710053,262.523098883726,371.442498746391,362.000778121897,410.556390130222,283.440620657574,287.8418089158,298.12204459291,244.43009875545,210.493717150964,244.261349387546,264.683417384133,214.581765611563,256.134164126946,385.10429554895,418.132905005472,397.330315265228,301.442464154627,268.238904604647,244.088255329004,148.186625945038,280.442542523106,273.523183324119,330.617397887156,301.901952772459,308.976857494832,395.59783472637,413.217067173366,387.248898956587,272.432522081358,275.608642334168,303.657500382921,263.313455759975,283.003635430764,283.459956345187,312.651186654679,325.498897410112,323.819010292138,347.861225512167,396.81925601626,399.04653195584,225.875072034658,310.479642452486,310.142451488056,213.810277264369,326.748439153842,331.917239976198,285.756302531217,307.250147366021,293.291168885902,396.195848642641,384.225469784843,404.189027783695,283.522826337255,297.691221887015,307.918608291191,295.126894193569,311.660432858114,325.55910539338,275.585612543684,269.838924071437,274.165986130713,387.805682994924,421.685200997571,424.420288122863,287.691476645654,320.383288016177,289.129076574534,284.06319410404,279.378930135115,292.180778188597,268.960772831983,265.594015175258,219.288476150029,454.2680385638,459.707375864914,403.753852030371,259.304718837544,264.820226832322,250.340508860081,210.280923380815,222.819080394438,218.34628645953,288.121287596535,284.112977413404,325.926671343057
,73.5,369.712518519979,299.088439338693,408.478701735519,275.804510709779,311.056875832342,300.474018722645,294.664561333749,280.272277223954,276.424490019211,272.563405249038,247.818358520495,281.417284460975,381.580150613073,381.33618210696,422.786418069697,312.546105278065,324.001864544969,318.829510486652,268.584337276415,238.503860845006,274.579912876369,291.668497281098,235.414523711699,267.099373570471,404.801361020988,431.60142283815,420.184093245435,327.507271792341,291.839565567193,244.216430345944,185.454447840635,302.409576773624,303.014330545105,355.586807266676,325.75097747148,321.28413172913,420.108115343527,425.824149634463,404.339119119543,299.483004451367,301.966073850785,329.419868509893,282.694227463293,301.363262082687,308.06686443748,338.952793904421,349.09530870263,345.711013095159,367.330959848643,415.353565301079,413.416416587001,233.848511920744,338.146327259407,337.915770651526,246.282187136291,347.379462097073,352.174423957118,314.983841789367,329.851738487716,305.215621146583,415.950012678352,405.647812473536,427.469244055344,309.206096773159,330.162592395033,331.260312657142,322.416430129532,336.579862281293,348.485593287028,301.768569029784,293.904485493973,295.106897696451,399.703456075653,444.148933400415,441.422882411186,315.693661620256,341.422243726394,321.612246333609,311.925261938798,309.061088479555,314.984698293915,292.540884953677,293.109253670029,277.717117689898,465.778191415247,444.350174735743,423.892252093637,291.532302198971,297.931935661057,283.921504931323,239.776162999559,247.717967675373,250.806311121541,308.358063715889,303.924681626585,339.270132273271
,74,374.679553548403,299.000926000127,421.680560267147,297.192776380725,332.791378270833,318.465401593543,311.162935495354,304.261065172058,305.799825306293,298.899789354119,256.857096914286,295.718581191783,390.746674827741,390.452671846582,432.572328944195,331.853445431304,335.864063184611,333.298904473009,286.706149186049,259.802667454289,298.447718817748,312.674924757623,249.914715765433,277.18207389799,415.762332395327,437.972338002632,432.662613890584,349.688357439545,307.197863307657,240.924102510187,236.057301871669,320.998903617541,325.633818816237,374.740851222586,343.052895124034,312.955074057298,436.004167597512,433.822873665144,416.180530977057,318.833784902106,323.961970636609,346.510016357536,298.213708985038,313.99019751312,322.072388834108,351.797382864704,363.321437062463,359.4906617608,380.856607111786,428.797812349882,423.734665961036,237.444763021207,356.669661508567,359.282328830189,296.480877299389,361.474785820725,369.196812185448,335.87413374106,347.774169803688,298.449345182435,426.006402502396,420.550839125211,440.857623133752,330.125849518115,352.60189161129,349.472217534831,342.173786568964,355.986028925101,363.112083844798,323.074350253643,310.139870915767,313.542385269443,406.593453806015,461.275914243965,451.732360755575,336.318625535252,356.190807438392,346.697295142164,330.093749602873,330.299269543604,332.079137711299,311.138067975063,313.827021468212,313.134336180334,470.360668708615,430.378610433041,439.529535061106,312.218991636352,318.556991660619,303.086997653003,265.944919199084,268.498046550573,274.336351808678,324.10316406638,316.85924104376,347.714337243914
,74.5,376.82611175771,295.875601554315,427.417130259212,315.024746327383,347.940445025859,332.81799183504,323.67036701089,327.074086676669,324.751695052967,322.514505984605,250.732470203733,306.443771624784,395.377140104768,393.515388236195,441.241630103531,344.063070533896,345.465291157298,346.001680927393,303.605733749083,272.543403365974,317.924707731347,328.583104707286,265.182579845939,287.350305048536,420.597073353934,441.956348487762,439.157452883524,366.114004196234,316.970963816219,236.930841806716,273.780556785561,335.482400329339,345.577053675278,386.138390144745,352.734425537348,287.344870720696,447.585341564065,439.903895758428,425.27723236421,332.684511568911,339.957904975592,359.023820893451,313.243210604198,322.67142951772,336.011789205313,362.162990800578,373.397410293922,370.971646454518,387.339435727299,436.131869302228,428.85226848499,261.381775702084,370.634342113287,373.099343877369,335.476202349029,371.922678149894,380.30619458387,350.484840884316,362.985836177776,277.497546768928,430.67618531796,430.780258494965,449.940199669287,345.466355880008,367.039328401541,364.947832832896,359.159060423409,365.58820304079,378.461453713412,336.174434284769,324.738543631967,323.409475393634,407.708881578304,477.416185906762,459.667691891251,354.628366880564,369.946730366137,366.263930633864,347.871388099798,345.001423876247,345.377722606359,322.062805743028,332.709646265417,325.29542531114,472.531307011774,417.124536497434,446.930927676891,332.183525203669,331.640832289881,316.611416598638,285.171448956175,287.282172161882,290.637083800533,336.090783959766,331.253340650152,352.920091750831
,75,377.216117374383,294.508689506598,426.900357499773,328.564630636917,356.108557290362,342.064099523174,331.710971185374,343.782233982653,341.0145194962,343.550895039323,235.117798676933,311.882372732694,396.456080973463,395.050001496576,443.171181822421,354.370257561635,357.308535188173,356.487080746876,316.897141360292,286.267771715188,329.968019709587,342.07068404348,279.660199719998,295.867687790716,422.830505989716,444.50347458283,442.326824185144,376.333569571359,323.471278152784,256.842870470337,309.135684601067,345.509038970337,359.221214698235,393.883614144501,360.628987332603,262.099854151003,455.137051984172,442.044297034805,429.462744943342,345.667141496639,353.845775357415,368.406574966972,327.684173066113,332.992077612888,350.377473327214,373.402488680997,379.881902933456,379.901682999232,390.55169049426,441.154852283251,429.503886597911,302.822365202395,381.79864663584,383.138455337554,368.242286219212,381.371520599541,384.911631192052,362.397385622351,375.246251464087,257.844115560465,433.206977706569,434.402908564344,455.066420369872,354.250534478843,381.775212167759,374.102306684129,372.637137060064,373.705443838152,387.341138982916,345.984895325097,335.485912017095,333.782129979446,406.927392581405,493.047003481082,464.345744294462,369.260093799699,381.193696903177,381.304164789684,364.927722107904,354.020624031524,354.925417194813,329.208284309547,347.366839489363,338.249737407465,471.784800108169,404.707334487575,452.057689705547,350.961830189241,342.004645504671,327.393114273697,298.879301256171,304.814619659353,307.449911387893,345.679637488291,342.004046389847,357.572995600481
,75.5,377.069485590814,319.741683630221,429.880773687302,337.793214246283,363.178491528572,343.893726787429,337.308937253336,355.563190508901,353.889367360084,357.2483962873,218.43815133503,315.501356573141,398.081609954623,394.848119516876,444.317519267724,363.721639794321,365.729842029102,365.865196729289,327.734822586605,299.4172399214,339.479386652975,355.302858618531,288.32078130973,305.656229878934,424.294707349742,442.827105516483,437.946908883695,383.951380931818,329.991287986594,296.064628959129,341.186537600336,355.381656902935,366.48765469903,399.265397831957,366.346024907978,241.30108608711,455.308773570614,440.009401003903,429.996150699818,356.614812176761,366.261725617459,375.063599446888,339.080737593718,344.242743796344,361.414927542801,377.093150134541,386.364705872938,385.984181650046,393.17915584117,442.98799383641,431.345217511149,336.308418241009,389.09633081566,390.893311734236,396.707107643156,388.82688233158,390.63841337966,370.56570057867,381.585304544375,239.900658847936,432.902789961775,431.920341863376,454.060845980186,363.566276731163,392.935328720796,380.004675060827,378.76146869795,383.814628407445,390.233797400192,357.410552394531,343.794169083297,347.787433067347,407.315794359818,504.780853318073,464.413273343756,377.983578236852,388.880880185814,393.001647452259,375.822150371672,359.839233112877,361.891914313147,337.019557951656,357.519801028259,349.050478221362,467.066451758611,391.728897438109,455.938365213673,359.548813149266,350.125536458403,336.848723516981,315.009740424357,321.041976077793,321.904893373344,355.929858666102,349.931837977892,367.071509780151
,76,378.956640057519,357.722337346894,432.208138862266,345.106612381231,367.452627734858,347.917591650781,344.190471529918,367.765502135067,359.257843757812,365.903453192948,203.291459057614,323.300699411124,397.879619212176,392.212844867888,443.653778950205,369.986227773969,372.755141519087,376.549655987957,338.81010008152,306.654612307112,351.970863096999,365.398967727522,296.986992361606,314.914332539343,423.913680325637,440.990111563351,432.39384365481,389.056930896527,337.791026689293,329.328235625576,355.525614383322,364.11532620332,372.305217396588,400.291301578794,368.260102319598,225.731268621369,451.807311747822,438.961178819349,429.580790198248,366.125247215815,375.394515319384,381.103085490492,346.213638251409,350.176560307548,371.584133503158,379.325892777116,394.552548410236,393.317161090107,392.080220262407,439.82390606555,432.41333699693,366.385999666278,393.224499139179,396.122748055797,410.710257031354,394.342962744198,396.503206190646,375.955918477944,388.371455760311,225.972773263427,430.244219267142,428.65768482153,450.244008933175,374.725430862399,398.984848026078,385.000584577801,382.513391948914,389.024526087821,396.763666158518,365.772187340639,354.14467139798,356.874402198652,403.552966211856,512.040504516023,461.055681234663,385.077206846163,398.310527637244,401.419117138189,385.911737097076,364.465399591071,369.037679870756,343.674042792959,366.359360214004,357.37905234668,462.041053735399,378.497856938655,455.30929771295,367.607318366507,356.229674671575,347.253740504275,332.545562536109,333.745174926173,331.306997345889,365.323613760232,358.315393137315,376.039191885625
,76.5,378.756867492727,383.656949762892,426.606264486357,349.540306437163,369.725162253428,353.213900910559,353.5004951393,374.988416445362,362.663924869338,376.528465514799,197.72829356348,331.61895831067,392.337059734337,389.844621800939,439.329212828342,379.619161355947,384.238738083191,385.877665468336,349.148808744044,299.457449525486,365.024113183991,370.647708903353,307.182649683562,321.047723549791,422.621909838218,440.632747248877,430.825689259705,390.285963879463,344.972453632201,359.66574516388,359.710437639335,369.307673308332,377.071498407302,402.955265373563,368.379273124491,244.415480039422,450.482067916809,437.023634897855,428.429918917675,374.280426194663,381.087027226441,386.564819578849,352.044086363515,356.355736704867,381.073911375961,385.771634689356,401.971994121903,400.49451218987,389.566836226345,436.460074374488,429.268975092656,393.189756906133,397.866672213881,400.894627295414,412.779481737236,401.001555209869,400.540520266914,380.558000764636,395.933128208861,242.955987212952,427.355596335148,426.713319359721,447.213268041046,381.943315053479,404.326175306874,387.520917823158,387.824526046142,392.261969676023,401.578081563533,371.319583488342,364.498917737027,362.479565333892,388.591926009363,514.62833782041,458.125722560806,392.332461014169,408.86416201191,407.49375523417,395.54202231357,369.426712224215,375.907772147968,350.622770158907,374.54928299721,363.153329531587,458.216245211229,367.071883227362,450.737326253126,378.164418201651,363.618165559587,356.196223859886,343.541138368004,345.643859668368,340.542996814199,373.029277159718,365.189418772704,383.038010813
,77,377.587982260032,406.965817833065,423.452153591245,351.536177412522,374.531843464203,352.289733927608,358.156687329706,376.268443305177,367.140663658455,384.175515797145,222.209261144691,338.036340089609,388.705895485263,388.466894132187,434.221758369875,391.677835199543,397.096626610028,395.805250681958,355.90080568168,284.867390462164,373.974254959729,378.822025250532,313.143209860953,329.3641057586,422.791760542825,438.226536877212,427.616519215487,392.830928226705,351.740049734131,387.165411519182,368.372544222373,374.723182644148,380.377742657296,408.878392455782,369.765998936058,293.083412952612,447.31995089892,432.348717923268,426.606213168476,379.589642642587,388.037435751401,391.662218198438,356.640662707784,366.976403024038,387.902652364722,391.378208693032,407.792930878023,404.876936739686,387.444874133778,434.859220751127,424.987036517102,406.342589501057,402.212973557443,404.815112110295,416.447500791377,407.862771659418,405.002527083748,384.046481217336,399.065505894491,284.750903443982,422.886649945142,422.805172000453,445.495270427918,386.319434141729,408.741335219021,391.563857293394,391.111972378704,398.990711109047,403.446353973601,379.408428480734,370.970827207809,370.898118203103,369.16045095665,508.865293393195,455.5410604576,397.720978294888,416.443912072673,415.736783429464,402.317325691544,376.510243597014,382.4631651673,358.382589711013,380.773795227434,369.725111051134,453.011130280698,357.505751266391,448.95228120099,384.427653243547,370.494848066484,363.482736240008,352.292728019139,355.901121122768,352.263406002825,378.809195232555,369.349118234633,391.684585847608
,77.5,379.332810972772,428.831144498855,424.098450240791,355.90272302064,380.124911790796,352.685364737133,362.493100063139,379.168310668563,371.373300991731,387.186191685109,265.17393169897,345.249991021161,387.120929641918,387.107878175087,431.535115633525,399.83207359071,403.865620936448,404.641428551276,363.060707070025,269.074915313996,384.229724569011,387.184420068219,319.236049565006,335.820738696706,421.859810382939,434.056553087284,422.489297282616,396.32297898504,357.626564651117,400.001490495915,375.113849313714,381.194136675422,383.749513183343,412.67282033629,370.955967610967,333.834451500317,442.777174579397,428.867668509467,423.602325291548,384.898803559655,392.519417695833,398.678650204703,359.384223657859,372.941101313412,394.30969810275,396.17240057048,413.808581962079,409.754068825835,382.832547267538,431.674740256405,421.595504846603,410.389290376148,405.73087748853,408.746162309222,423.037815029881,411.300788078373,411.432939502072,388.786096289832,400.263802028184,322.163905966242,418.259674829013,419.426291339646,442.123703882911,390.236260402526,410.378978181003,396.153510051637,393.873919636431,403.831127591926,411.315334476029,386.31762001369,376.580450249528,378.984721252975,352.092789506008,495.8781658147,451.609693188769,401.955426346004,424.12917679685,424.271858147635,407.938608572854,384.655416149459,390.723261021757,364.748503018131,384.434251268937,375.812155539878,447.996331767591,348.941530040261,446.642086600203,387.974064714644,374.196476860435,371.183355196223,362.522943132119,363.206474914855,361.224804039214,383.743702595998,377.395990600822,398.329762229578
,78,379.518953881117,432.29872593403,419.614527712026,359.362973467782,384.03964664594,358.646117485855,368.577677452741,385.543742122962,376.60344400994,391.340783139262,305.239673989847,354.301552155421,383.206206673175,385.217604442074,428.40756590436,404.689179189253,410.227372828787,409.732776513415,370.965134487589,254.922599025966,393.363405697486,388.448066290304,324.459353339431,339.936443124662,419.948645197164,431.570656122621,421.294492110695,398.072836110927,360.967784980192,400.042808368844,380.631134333755,385.612259654343,388.989570697367,414.610680813783,370.6455866761,370.653628346092,441.584280935151,427.438757969243,419.680818044166,389.552969400133,395.21976714248,405.275763766685,365.125568954961,376.348064083961,399.70443596723,401.357734173241,417.427804707477,415.488276754161,377.515343225271,427.673343599572,418.075141137423,416.523192566759,411.436820435368,413.586712514992,433.933253903416,414.581568613536,416.862186033242,395.292562425029,402.277047349532,358.76956323546,416.016615550318,418.726278058626,438.281908293073,394.060387510995,411.162316858846,401.30649260829,400.730321681202,404.879878657463,419.74224417278,389.457180307029,383.284231051845,383.082891164423,334.522153726009,479.764795619192,447.540778893678,408.143016077063,432.072770166407,428.702378105595,414.560669934659,392.09266663491,397.964782452927,370.099813601918,389.196891977685,379.937321542241,446.243081692705,341.611338865118,440.589845438537,396.924717617961,377.134000488425,376.512105863006,367.697688154941,368.803691342463,367.645509973396,388.297052478292,384.312296521044,401.298332551892
,78.5,374.216545327741,425.563997989565,413.112139467237,360.214803645527,386.941875297091,360.370306586006,368.961258234905,388.010238811563,381.696917222016,393.798324474966,344.636628156783,357.395387640948,379.68971092969,383.378008569185,425.099686861019,409.943757949819,417.292271269214,415.003869049402,377.101529821564,244.781431852792,397.445278956905,392.364909122935,325.221365509208,346.745144150327,417.247147732447,428.421676571218,417.169056816649,399.818667954294,362.048544633843,401.353487685074,387.821879184061,391.437687182228,394.471075441723,417.699359880364,372.334693426709,405.402082165994,439.318271146595,423.389047088512,414.604220964286,391.8946121716,399.357924293373,409.592834010706,374.809590208053,383.46224357837,402.812486822949,406.169850440067,416.980860916061,416.884306182835,374.076439579994,425.367398920579,415.02781392664,421.339721654515,419.680971689619,420.029510443162,442.849594059312,420.473920488084,422.352699395957,400.118406987269,405.376814137178,390.681970449828,413.057762479227,417.075478919531,434.491218940808,396.912547365749,414.045315464655,408.510045612559,407.268153521166,408.925507099988,425.163040655596,392.069833952556,388.03784176739,389.267260133619,321.38587107485,462.182489181984,444.45869669928,413.985757028574,436.320691134828,434.355921696746,420.348822936657,398.967487787934,403.239425488986,376.280943202316,393.518595832721,384.394931012293,445.165877694859,335.363106413618,436.548880363003,404.222908886461,381.102487432199,378.954042512112,367.375776299293,374.127624106341,374.514715605202,390.568830264306,388.771334609107,405.36085386253
,79,370.257526741659,422.524636178292,411.065120851376,361.485383338148,389.786716656766,359.922389680316,369.766435432757,388.786750483777,386.952538423751,394.062242731911,373.875590484463,360.889472089549,380.02085008894,382.694361178869,422.924500823748,412.304771120041,421.01690003765,419.954368377443,382.961272941044,262.418134564297,399.715839157715,401.99080081869,327.402691503226,354.963851607408,413.962347125736,423.408644437825,410.146353187665,403.323058741437,362.67221460962,402.422944667817,394.505475995297,400.457678839584,401.428285147701,419.809827098086,374.986421291188,420.228718050602,435.871451730687,418.565550238904,409.482316771667,396.797424258345,405.517646784799,416.872844068612,382.919031277467,388.79119241968,406.975782936443,409.919321446346,417.409193777222,418.931579715826,370.889966472031,423.937514040974,413.718086341979,428.296012026327,427.851880812779,426.938327505692,452.277723477086,425.606069154106,427.289443447049,403.865178344871,406.355649637407,403.986408302726,409.130655559041,413.00166403581,430.262993722575,399.447011386142,418.264740701809,415.189988859156,410.694563853127,413.351929848342,431.275281723431,396.383929385114,389.195968893253,396.9124642199,329.943168714868,445.590344468887,441.72862323245,417.563757151449,439.037182857412,439.049837545033,426.310969909361,405.593992143635,407.672096979451,381.986652144685,396.151643960378,391.425097582903,442.708843574858,328.397938427417,434.119713220409,404.164344020024,384.777662562266,383.613061507142,369.148623666915,378.14310632527,381.811055665451,393.007371329687,393.525250194299,411.104256781106
,79.5,368.377544974587,418.955190470651,407.527596470788,362.615648799497,391.552649298283,364.185720187238,374.053290866204,392.130731754276,389.927076104822,397.069557570699,387.843939327951,366.760968329304,380.055749114562,381.891229970302,418.414903734893,412.298490926312,421.354873160804,418.450493179808,391.829999464497,303.062239773571,406.24821156499,406.01054290394,330.640060743502,358.251252628663,409.081177478758,419.726785193444,407.753047998626,404.989243142958,364.053251919632,401.950756476263,402.733801289445,409.126184963397,409.68397546327,418.217238355372,375.497680743771,419.469918499979,433.544492069085,415.274030540858,404.856584910474,404.837814582772,409.773825688806,425.297499984945,391.711761436515,390.600368916915,413.310060811843,410.709399370463,419.416349077308,424.897769539781,368.430301992203,420.946736135324,412.118286155358,438.43719917787,438.096799698716,437.433188081076,461.091202225441,428.556902642777,430.838422962412,408.375783499985,406.858410412675,404.501272897382,406.772353204007,410.982745194616,426.036378787515,403.650682599881,423.264629430798,420.136728247091,415.943149105004,415.386301561733,436.228675624417,399.417495421825,390.01543024596,404.185487376933,352.631433126197,433.754480718887,438.518247006044,420.646401546146,442.79379720385,439.534736527898,431.612023891063,411.021269325905,410.878660804973,385.716210024408,400.654768779976,399.457142648418,442.999819732799,321.705778270518,431.009090734807,405.052830395737,388.467726180892,386.906212561972,373.867972782937,381.774664118767,388.814730571468,397.688158024098,396.479812082399,414.66709256715
,80,363.641829710214,415.065255265402,402.436661932999,361.469408033929,393.314891471189,366.331853037022,375.601661945896,394.277081283527,390.376656290044,402.498657005393,393.418226504996,372.153943434097,376.277621624034,379.524993192158,414.736644708561,413.838024683033,421.704441987486,416.774750653101,400.214081875927,340.000923208058,411.671998519459,408.769234596539,332.491482287723,364.115180614899,405.101884754397,417.418512819342,407.101947526766,405.439102823041,365.966063029541,402.109690276594,412.203357977001,417.735760729888,419.429052755372,416.785710936624,373.932285395995,424.027245585276,431.234825178598,412.289832673328,401.551604659204,411.857464709946,416.047322984445,430.911547056397,403.064474801459,395.721415527771,418.011280899816,409.345555000615,420.08796185369,428.797687313718,367.33817595146,418.23927173796,408.883683863529,451.463856597572,452.665014643825,452.390095089118,464.84951735409,431.801996578943,432.707119326884,409.571941353327,409.70276876364,407.979767349708,403.317800700444,410.126131087294,424.548653867932,410.780128364044,431.050442073137,426.339547351598,422.08692757671,419.709919556002,436.918333068522,403.714297884546,392.289766985938,410.833611686784,371.427314694228,425.509001487999,434.242089471792,423.326103836575,445.427183261869,440.481111503267,435.121168082842,413.412972807678,412.623471058681,389.888378118942,407.186900828026,407.069155972923,444.936795624614,315.81113039354,429.383627216854,407.681367962877,391.16825849327,386.961983289677,378.816213090805,387.883668833053,394.995365408995,403.236208646123,397.802519332093,419.65460913641
,80.5,358.863847213473,411.694517642016,398.441331129442,361.550555136889,395.089617261923,365.378529277195,374.38160689262,393.0380327618,388.987768664097,406.096506878317,395.785531662593,375.874607586882,373.330001654533,377.715305458022,411.491607349591,415.884429218632,423.068715529662,416.264566784123,405.049952640881,375.341762367354,414.435256843012,417.42851332617,338.743367408514,370.472119112511,402.482116322274,414.99915909852,403.047024052012,405.292216253644,367.182989548058,402.876358565396,422.436476410228,428.305956184746,429.003087177611,418.764356506019,373.430611300469,427.729416491419,428.4721866323,409.850496286615,398.161934140977,420.045794137117,424.504670614681,438.226562518264,410.839904351526,401.927821321006,424.586927779234,410.609609353202,421.08978281143,428.103748601709,365.567538539263,416.873518023946,404.692377032928,466.030890289493,467.69179640482,468.368131422939,463.757434803428,433.597196283196,431.266116096522,409.106808971857,409.896512363321,410.842927256995,398.710366182729,407.674785648872,423.399148353475,416.457156547898,439.473922205546,431.59730623986,424.23106561794,425.580012410189,437.107028680201,409.666559249311,393.336844538363,418.743676076311,390.211685621822,420.329007341831,430.309721025904,424.128260605967,446.502960537799,442.845172915595,435.854237855566,414.119804957398,413.713993892487,395.371643544079,413.733691239955,417.304063932009,446.571025399159,310.53475757296,433.366539107892,406.001793126537,391.671870678405,388.13491818138,386.190280637404,396.426116316981,401.473176165893,408.188715457764,402.092711502577,423.15213076317
,81,356.1111211251,407.944279356472,395.017154793147,363.136764774902,395.614250016453,366.895027962054,375.54388290318,391.603066145463,388.590137598026,410.626678054925,397.701679070039,380.303162838406,370.614161322812,377.377786364309,407.579871770543,418.541102167151,422.593800352697,412.53054580678,410.791437326418,407.415155447342,419.976568755847,424.160712319361,349.568980824813,372.948381858078,399.263282912792,413.545718231731,401.434612287978,403.869847858502,369.071444133131,401.763313993609,433.878183447352,438.626395018727,438.410763563765,419.702166176198,371.672025166154,428.502434278494,426.029561520385,408.306361572967,395.530045917711,430.679327363036,432.467483814778,448.866111561819,416.191356469783,406.648129600444,435.473832322701,410.662469871241,423.592350710939,430.164070837645,363.083429012263,415.461162905521,400.512493358811,481.661330901567,482.613025126226,483.307849745612,460.741100346922,432.133771926198,428.335407839051,411.353090496333,406.7038923878,414.812634225188,395.069319663942,405.490060237811,420.52117856878,421.013144555421,445.07088000885,434.66057481314,425.984822285277,427.517411311895,438.779446204458,416.525222254363,397.670596521062,428.72118726262,407.801580137556,418.652269874078,427.713661515237,422.876479671122,447.475006637133,442.5172688588,434.087722160529,414.603277025889,415.16047181679,400.6460585692,422.554530414647,428.460568903085,452.223094458188,305.725248918265,438.57681691726,403.752620304766,391.718917603364,389.572692796131,395.462201578168,406.77551350739,408.197148724734,415.211224626061,408.433554387583,423.301273993558
,81.5,352.087036635372,404.502273489211,390.351193690557,361.025959152519,394.147165823823,367.927253768412,373.605115397026,392.624965678686,389.68658892058,413.97577715428,404.798956578643,383.992274659558,365.881753373184,375.530554425778,403.594819106222,420.96824265064,420.846944464301,407.621932977863,417.885143666623,425.639792273854,425.863443330936,428.360043788206,357.76730615197,376.46213906584,396.355377600248,411.779822749206,400.408634587946,402.220544445591,370.979027820136,399.816821566452,444.622733608351,445.917663894046,446.600851498837,416.983962588436,369.612032876572,431.130939329251,422.019877023623,406.347527118778,394.133041335775,441.128532067814,441.709340342195,457.666181468311,424.621444348347,413.886463397211,443.181923310889,407.017588178185,424.066519025416,433.001657982157,360.600317707458,412.735801570457,397.013552499486,496.877095107893,498.525576734765,498.365413778817,455.296728982848,429.165334882142,425.758534480028,412.507217473508,407.203322141059,419.726678715088,391.981817431749,403.400798571116,417.15280419217,428.46285582579,451.319450160489,438.814090109177,429.06195167176,428.922437159319,440.821536057393,423.100136129457,406.503884954582,439.991818166928,413.937877865629,417.446467696613,424.176337423347,421.220426042658,446.419924399786,440.885112585935,432.817323294591,413.294238788146,416.436884948781,405.426728721876,431.928726963737,437.516924098489,461.322830583261,301.404314617685,444.214339374996,407.888407308933,391.082193761004,388.881295666654,404.094591958219,418.024925268096,414.868310265288,421.701319842316,414.255918048288,423.471080150392
,82,345.72302653592,401.229357345394,384.23760694474,359.710389188894,394.338692819389,365.281385149528,368.928133008797,393.55544494381,391.678348128685,414.899923610741,406.81121832144,383.581645729602,358.188986243451,371.911700100259,400.720120672032,422.591987764187,419.273623148474,406.203636717563,422.089402589574,429.263533872372,429.647450432587,436.647817623852,366.943391682198,382.646271014499,394.453817746175,408.769084478775,394.925782394698,400.74233998551,370.667896960132,398.003142717203,450.720339765242,450.659367347399,452.63472670604,418.246402901014,366.858342165594,433.931601245744,417.762277204135,404.232961536183,392.660517017422,451.417538825259,453.365818854502,467.161831178038,431.68026732754,420.929745296652,448.501099223166,406.635185047258,423.409001319461,432.456189762404,355.678833563862,409.682175654438,393.534685586528,507.71865314634,511.102110330282,509.992312418955,449.933611493439,425.458023438797,421.498990926092,412.704011990044,409.449823210766,423.469076786276,390.473128732961,399.766867606767,413.622372508071,434.143954435829,457.144143209347,442.572104274727,431.02309680591,432.968094062701,444.787922133299,429.550100551537,415.983725818843,448.930463761662,410.626965724459,416.587980846821,419.734439849811,419.458572715864,443.084837989811,439.494233578522,431.475097663538,410.876722624371,416.89016850037,411.596227219733,438.010018751302,444.281120754684,468.938778438288,296.635241269682,449.330931635744,410.009101460489,390.029163598166,388.677969817447,412.005166609676,428.426026986847,419.544672739363,426.773382717648,423.495641503696,422.762965901077
,82.5,338.776288589984,397.271402058127,378.640193151415,359.728646492044,394.551076517663,363.157468924683,367.357542099067,395.2324589342,393.163266558639,413.065557428316,406.294174949682,381.305844094629,351.545104494009,367.968931936116,395.528357827803,422.922258607588,419.904130484454,405.620018201679,425.491648340949,433.669845414735,435.18214704626,444.079239417948,375.547973945535,384.030481069357,392.130496129541,405.799268169924,387.648174649273,399.641180730735,368.91016102997,396.845715824971,455.521309058698,453.75758091372,455.613053128808,420.074301111413,365.296786290935,434.530818466071,414.546804969665,400.579817763929,390.779811012174,462.076518753919,467.244646450752,481.251919767401,434.398938581017,424.420661548263,455.599187135592,410.209981947217,422.675061009848,433.051500556472,351.100027560157,408.677512505953,390.139522131622,513.161169021455,517.875395443565,515.248722652659,444.818662297252,421.938763329335,417.770375968403,417.133275885331,409.300429200084,426.956561559792,391.294847557574,396.901788509761,409.49639928442,437.992954021541,459.09314774214,444.521086690105,433.963023009132,436.338813385833,451.479434772728,435.476819756992,425.849647754075,455.725370829988,409.11311827905,417.0684247825,419.063258200109,417.938856222621,438.724337393147,435.615420498943,430.194802351937,410.556027569104,418.154335749051,415.30073211884,443.476312036474,450.365313927148,472.760897964084,291.483582152659,451.377364334675,410.829578445436,389.705958050216,389.7637874927,417.49778520935,435.171025524092,425.755311765395,430.46604498876,430.907001057221,418.544727227498
,83,331.488184378088,393.497353334132,374.943167197263,358.290304372963,393.647384448731,362.514537860031,368.1097804887,395.717345382804,395.998165899505,414.816120408301,411.742546471338,380.326690721254,345.124471166752,363.177827126558,390.750721492123,423.005730958634,420.169332231008,405.436942683305,432.524480899534,439.46787384432,446.009032140203,447.654494379303,378.701667862152,383.557829862943,388.65243924093,402.309239886206,382.281552429437,399.776882765381,368.220376034177,395.460204476493,460.19431790763,454.997899306303,457.918478917823,416.832025382182,366.598840219314,435.056170531449,410.991730854847,394.688127467654,389.420819084217,476.261133023891,484.144318020699,498.993645338423,436.578217273074,426.731875649944,458.679802711657,410.37990816451,423.83385283891,437.810439528556,349.335082286289,407.769865159017,387.634987150239,516.579906160932,520.822492557233,518.231079327981,441.06008884665,420.427279096889,417.214994556063,422.152130897407,413.554290262291,431.611888628004,391.701834031239,395.187952172331,406.384061262975,444.726654108543,461.573220805852,446.768653088341,438.316561564782,439.365094550956,458.70463601247,441.7005106193,437.520870160822,464.491724762933,408.078647727322,416.997535712535,419.955241323458,417.005204427231,435.806171413597,431.455162607169,432.822114564996,413.395812344939,422.202005925409,418.618507306184,447.284828518475,454.957252662423,471.970308491877,286.822995077756,447.069375446825,414.932056887351,390.639493486555,390.511711357754,421.10249277751,439.477097927937,432.340380311755,433.298092636114,434.172446250342,401.38714906588
,83.5,324.420047124335,389.070989776229,370.47201045554,357.427141988634,396.95083940313,363.653756409602,368.556594674001,398.956738599565,401.557647002066,418.935683619309,417.686675030576,377.651626088664,324.608137153903,358.873444577413,389.050083680247,422.450321898922,420.323053779186,406.499075543299,442.121060362211,448.64028774772,458.860999963125,450.91448519622,379.049136059577,382.646373681815,386.66561177189,398.379233229354,377.871329936249,401.205165649256,369.190882261385,394.737662637622,462.056269117391,455.856788780078,463.292325501725,415.083712221799,368.149303162024,437.871090529028,409.348900052622,390.3553877484,388.089834940899,495.67315033555,505.217118764277,520.830912418346,437.036035697284,427.9159540258,458.079541108969,409.706783672624,427.776855155449,442.685105406999,348.570452197054,404.876971722434,387.513098698109,520.086488150708,522.031197242286,520.470770364318,441.22301796702,419.235911311626,417.735166616534,426.520066459501,418.549681581289,438.922730892454,394.219094654253,395.191993548356,408.088820053179,450.380192780476,465.449920812795,451.852598526404,444.472478214182,446.005019976371,464.554468613875,449.12732616356,444.725104986946,471.044620637517,407.700483408468,417.10238808098,419.165884037217,418.166504140831,435.409654767211,429.761052935492,438.766302497023,416.864998468463,426.901739070072,422.469521372554,449.381455158066,459.248548620787,463.842978348005,282.686002366639,440.074842907066,418.638507665773,393.734971128425,392.763827077514,425.911622159783,442.73969538862,436.056042394272,434.771430187557,438.082744801484,378.322613963192
,84,301.111705180782,386.378723647339,367.053065041781,360.946523061677,402.995340730447,365.060414099671,371.628157932418,404.35641241824,405.667722254061,424.169005622595,422.991108318596,372.096871743622,295.329859070283,356.104806395677,387.198439892401,423.729870116641,422.3728381395,408.97281229237,453.419464426661,461.403732497008,474.632304948901,452.160293005654,377.934483970738,377.456346042934,386.59315802904,396.688276238616,375.600240605211,403.711935649982,372.391085303424,398.122686870296,465.622502408839,460.761682807822,471.178314579184,418.770112006084,371.178717733611,441.787988748554,409.932825046424,389.90333532218,385.966413909281,516.927091374529,529.781638669188,547.287409093824,435.55513600246,426.855957560967,461.129519296142,415.49966325954,435.751414421415,445.515715910379,349.457898326025,405.409131083878,388.36180688668,525.630898638008,524.894405815736,524.385272610359,442.120400818051,419.219665883124,419.524973905436,435.100361427276,420.347314944031,448.459703064215,399.606745687905,399.928263020139,414.666168572506,456.136669312496,469.046067433727,458.792596180053,453.125813839137,454.809181039092,472.880231455913,455.973684717441,450.017398177547,475.424303709843,409.995551434854,420.749239449493,422.038054447488,421.086996912007,437.498809478709,431.38986073158,445.157708592959,422.750070971232,434.698987568075,425.846510532986,453.43577573704,465.514645961614,451.46953559713,279.96650662489,436.12609335812,420.706413678404,398.540760062613,397.194182193939,432.619990375142,444.734607024655,440.02781530047,435.923794833664,444.552490171922,362.724927972884
,84.5,267.057235385498,386.972659413007,368.405705246872,366.965579644188,407.139531353669,368.995887510302,379.71514018952,410.96095038631,414.634912929695,432.4125050864,434.868055483664,370.424247325577,275.189315032621,355.903353182523,387.901671177729,427.07811491035,428.138238780258,414.586803544448,467.231556706007,476.638269880174,493.432206056267,453.547483506634,376.513803236748,368.640939957441,388.863322072818,399.149664140941,377.879691431152,410.010746261028,379.22682252293,406.353270791271,474.865068781166,472.87391217928,484.368051792276,421.264619967925,377.062082779149,446.031567709213,413.072138545214,392.159390090588,386.242783496506,540.868941366276,556.578878294617,576.056905721606,434.997827429896,426.838971036355,465.317595083315,423.176575271084,445.24622373178,450.638480463605,355.251964607727,410.296769992532,394.109496284056,536.834974284223,533.186278398713,534.53617759513,444.684438684589,424.457983814762,424.354001482933,446.854444961829,426.466028013713,460.732730102282,407.512234076257,409.749280620532,424.939147177951,467.714512264489,477.049375846193,468.84409201597,462.803147217106,463.341030287706,482.475469607561,464.094347937174,457.246291172841,484.030489414164,417.032095855174,428.304779725099,431.611335523526,425.562832097855,441.920386997176,436.622439967524,455.557030214135,433.254467418652,447.786366132983,432.345585950105,462.01883369607,475.287789752018,439.545461871605,281.373790253858,438.501578852974,426.924796208918,402.83600965183,404.829280826527,438.367820243818,447.475332552016,447.752124763841,437.30987716427,450.008859360767,354.976238454834
,85,243.366468368517,390.61149772971,372.362733554923,374.772873573566,414.324073636691,376.449667936904,389.589311684197,422.394022545822,429.431029652394,444.964331117242,449.75665282703,369.355833352948,261.746301520428,359.745331894368,395.469787192569,434.629595930978,435.839386737976,423.649595151766,484.130165216241,493.817880914243,512.362887164559,455.644967592737,377.364802133617,362.865309299784,395.374441838679,404.843216593496,385.581281943304,419.34334043133,390.360513758759,415.404119513464,490.073494166941,493.243203819864,509.509936206192,426.621337299367,385.210086802718,452.990108477705,421.29135844949,399.292424268923,391.896922826863,567.933105023977,580.308032871393,602.322236405742,438.223477793062,431.782019353339,471.036918138382,430.318126852437,458.650546240783,462.396973462559,365.577897127232,418.493566729586,407.108554936658,555.178230166688,548.703669074928,553.111495325614,452.547729850964,432.181030147501,433.311040506077,462.833376786417,440.360534424714,478.763914962127,421.70613414844,425.129648090001,441.612017028299,483.892374402573,493.748262313391,485.359413616883,473.850159143775,474.435415610482,491.093516791212,473.185527428524,463.505793106876,495.566182129654,430.167317504345,442.014663621105,446.552082707047,432.154646403105,449.78720949315,446.443299955806,471.88572399751,446.877290495385,462.63644758552,444.27084754568,473.363877298033,489.268708343105,433.093080938915,287.288588965464,450.64619144307,437.47045274588,410.454909256437,415.970752956757,446.984955886013,454.128481629255,454.919034612734,439.446832358022,457.850429068157,358.723615724365
,85.5,229.15295115401,398.844309895446,379.711114948581,385.83047279357,426.170441768038,384.928365059039,400.325962278192,438.567233752327,445.443478059444,457.841070470617,463.947604865805,364.930977332583,255.162587702266,368.931262276302,408.137815002008,446.300573579538,444.78599798532,435.436026017847,500.867886788109,510.800263658818,529.612514721205,460.193205617436,381.756180144769,349.443087222104,408.884737994127,415.941901449373,399.58240835175,430.501957748388,403.237023948594,425.49657650361,514.916697054514,524.186556801099,545.399755938359,440.003179488214,395.071652728656,464.476410850102,435.575955861652,414.468560160512,404.237892012937,589.818063531833,600.136713082682,623.209075609564,448.160158206288,440.435275704735,485.066861650363,447.528093280614,478.549621070395,481.209402568325,379.419296324199,435.331770040831,425.482115464591,584.033128710405,577.625464027705,582.525426305237,464.571203946832,440.573149519573,446.781886460857,489.334981777132,462.462352727865,508.090332010559,445.298259642578,450.751682086707,468.493408437535,507.752782690227,518.558637538186,509.68242922058,490.39706040121,489.067158626972,502.228698370105,483.063559931501,471.245574716695,507.658378152238,452.124296368273,466.042519837877,471.529247320886,442.984585025863,460.010833618315,460.50956238195,491.256921576483,463.030508595146,480.13446044619,459.213390099053,489.659645239969,508.223343703931,438.305355641935,299.163320668457,477.68617741058,450.509588637794,423.261064970356,429.115878822759,459.425352371296,462.849846388015,465.600402331075,443.634976785334,468.742588823443,399.230778586633
,86,224.39723273898,417.700456630295,396.634707885189,400.3030345333,438.813644043833,394.429548476498,416.348014615466,456.832070894375,462.71197433215,474.006462506726,483.40004259749,365.48456696822,286.867762266282,384.409982036995,428.549323035103,460.372329240024,457.261280196954,449.709539313757,514.883985795186,526.40577981046,544.915720166555,471.216127167712,391.990745041207,334.621091070057,432.296538347146,437.922667791182,421.541691356092,444.23042969345,415.462412557016,438.296329797216,556.461969635365,570.495633884034,592.509880512383,458.256705035803,411.903587267968,482.407459405274,460.137892753386,439.374753215555,426.906248763894,605.183633530527,616.047724248187,638.590335680602,470.183814968995,460.745432217111,510.178055860769,477.081418275249,505.972251686253,507.996502194364,402.672438966969,466.598161235851,453.771238667137,641.818989712297,636.289117739705,642.391562465211,478.737901706791,455.815799394185,465.558479121355,526.661731143544,500.174570672387,550.443805914537,479.791375269495,489.302884241469,506.42619186656,552.683347783403,564.270751716766,552.886058165675,510.166453327307,505.145145657918,519.202161068296,497.664873999584,487.582348535549,526.234396851417,485.983725647781,503.01327303682,514.61432172401,458.73631501471,471.954103988998,478.287157815884,516.341934993707,485.175854677165,503.609156498298,482.757149172157,514.188567141707,534.781229053275,460.897508566755,322.162470893862,521.069755552882,467.694394240484,435.865607239187,444.679527309397,475.248595179764,475.171942758751,485.199503390235,452.484388604606,482.797182313066,468.888613896812
,86.5,267.623387486225,449.165987329041,424.508690294921,420.9396660196,455.555060922371,411.009168118196,437.461742439709,479.311221049914,485.331628516421,496.926309940235,506.864624764608,376.849981441282,352.616381581828,409.432702600617,461.670343169011,476.65256281077,473.3253643278,468.907587186025,530.503141507834,541.092313793604,559.042924866422,494.340467951074,415.094697997404,341.069924235725,468.126200926878,472.078907671778,453.937840799423,458.722146850746,428.007259124802,449.497444226103,610.016355168175,628.991669743669,651.803710224643,480.901817350076,434.75576914302,507.866648462012,498.739343655801,475.448535785489,462.422119612384,621.267406854847,629.016895577772,651.435017219126,502.688018550859,494.06549225614,545.931273016686,513.146215152613,541.729892266934,547.374325985849,437.147800062465,510.960092992274,496.542735992075,735.353465265475,730.438201187236,740.753375950332,498.952712026036,478.848929265939,490.453726084847,574.134135777127,553.686794094685,607.026955978833,528.630598108854,542.451412862441,559.344191962507,615.456065781038,631.542064864538,616.770155338068,535.018443035092,528.044420317848,543.548773016722,525.366319643374,518.701953131253,556.707538399876,537.276953331289,558.140474147172,577.88187430597,479.150521787699,488.227917855117,500.691572729889,547.143903678609,512.131469716206,533.444687932163,522.595323933955,551.9537620211,575.724817559064,504.498421804074,359.393152455648,580.856411989332,488.224624570754,449.283567282579,461.9424901885,499.512298122513,499.108257781832,512.851384408506,474.781414128131,509.217834402396,547.084157498188
,87,354.387368586171,491.347135250868,461.858208857347,456.702823884139,490.072803417137,443.46905546239,467.628623951166,515.265907282866,518.859517734183,534.540298254648,542.864506049981,403.836088205678,424.080152546083,445.711821445507,507.289383595138,506.048151883436,499.946414293475,499.278678183251,560.931035104007,572.733114237985,589.083293868552,548.270697117912,465.817578766576,387.656210149733,518.615815963108,519.057874016059,501.252170737459,476.481596847203,444.48676465124,462.664086842198,679.214959101735,702.42515310928,728.42661812358,531.112188163191,482.220748603228,560.01159038464,554.357663780604,528.618201592536,514.859570887498,653.418010513695,656.992572434225,680.22350842884,560.131848347041,550.346773001521,612.134421831655,582.992279484773,610.417825360247,618.617115865775,487.644411680181,576.71414990308,559.233255345996,850.164103914228,847.392990780905,861.016885779015,539.810471096887,522.078725115167,542.957024989528,649.75734831977,633.938779205567,696.562246586622,598.262681953153,621.090694464722,638.530224696155,701.511601431316,721.429656743039,705.100343989934,590.982241130902,580.031162017925,598.210328253411,592.346714732121,589.240318632175,626.814991659314,613.068714549547,638.912954023468,667.698920160029,518.185159354353,520.838842823771,540.653259056442,592.615005383203,554.200623121795,581.265525922975,599.849655856217,628.169267634655,657.783715591557,577.331089370844,411.766624165552,663.72215582119,523.049563389172,479.565906396876,491.712756046861,555.314830935401,552.524090585698,570.59082712383,538.973886478134,578.659824900863,674.466959161589
,87.5,443.325896139707,542.134266502364,509.724704955321,528.503714413109,561.975828518169,507.624144986502,530.214549508664,586.133808384201,589.37321281475,640.521042607098,643.752484567514,505.675213399958,510.522558394197,495.393493303159,568.071617462768,561.363084840442,549.800115537161,552.549449930578,624.848550921758,644.181428457911,663.179546183719,693.399517942896,597.9168006514,524.166573750286,589.467753595855,586.817451870489,569.944179253333,503.433541074081,466.878673910155,484.413871298453,779.837549714018,808.389060987465,840.522910707954,652.110489881453,592.396105480121,677.279144061108,630.719646755456,607.264548643574,591.774178971831,726.120364065909,728.116627358668,756.250502202512,696.140837305413,679.044568853583,762.457483273584,721.998608462329,742.712944591402,747.186501510908,560.768971729151,672.982160273655,649.545542814539,983.333125568407,981.861630515606,998.078614968864,624.986812250924,617.756663288381,652.502276502307,777.11258799774,768.487840068569,843.506907739628,691.833597927005,731.6960029973,749.925728791737,837.97795742057,856.536520713762,840.437978729004,707.080524805047,690.678757271135,717.76955139141,757.386960468722,758.47305205046,795.750815637708,713.126329730399,736.578843185264,782.241334613851,600.490049942409,589.930721201738,622.776143189884,671.318634470188,629.343742317506,666.061862221486,773.392931305581,796.686560427065,833.723301745999,667.822730881342,468.85278983127,759.965703698181,588.007850700226,537.722367516712,552.070019995351,680.51716700729,670.264638350406,700.436255007344,704.268474976882,746.77300476266,904.247937882299
,88,552.191834135982,619.948367226868,583.784223149304,658.602680203403,695.938578469707,628.063465973352,643.982614574296,714.305133284699,718.68147937125,847.79602081898,844.866213557877,727.937118014485,633.458209619195,579.791334401132,669.28671724199,652.388983629868,637.654144323715,642.428634817962,734.43153490878,764.448330943658,788.42586492106,972.019803718834,846.732569788755,819.343967490304,705.775808282377,702.782245492414,687.780082640695,552.523758134962,505.940123330241,526.097344546364,935.471085778687,973.98002868416,1016.65580455767,859.669451333724,776.793809633118,883.364668401163,751.331859098915,733.787789308141,720.556802797915,839.193223789773,837.117047623942,877.217780529438,927.242500756351,898.944082380792,1008.14712221996,920.644200037951,935.011754431249,935.949421709746,676.992203585062,820.357356170091,791.556909915399,1130.47233994016,1128.99873974878,1149.92274285897,774.728395834628,781.97676618003,829.107991104427,956.991865901728,961.875034488526,1052.10137428345,824.450783403135,888.290441513206,909.748918328758,1044.20086491277,1068.1551996939,1049.86752890853,894.235829280896,877.374148346215,915.302056874621,1014.81697658118,1022.10836120711,1065.33661311113,837.555220870288,842.814633419499,919.812725581166,738.732320636453,712.315802005049,763.994985781813,797.748340354975,747.304288810546,797.335790655916,1067.20486902463,1092.00099469908,1135.25583830702,754.834704456016,514.436191116493,857.087673398496,697.509310087416,634.950488792945,657.121553373844,884.268312252882,866.163191413142,907.855568442308,995.749344619761,1049.62002928767,1274.45468419984
,88.5,752.932526689299,798.724074682592,758.557978954002,861.253212465466,907.495420270679,821.047867436233,817.983615016258,909.639354516808,917.477182767954,1132.27932157424,1122.13474087236,1042.2646993552,854.304117853163,776.75236682498,892.514386693353,815.426089966053,792.129537946978,803.182610644067,900.981415986907,943.957066134127,973.704250403601,1364.05723708517,1195.92805323845,1254.16440580959,934.439773797571,941.986460494016,934.772913085385,666.516286412153,603.887341594346,629.842964761694,1150.86778585633,1198.34557990581,1251.12943082198,1158.48231223964,1040.19335784681,1178.43130774824,977.508046032614,973.797782681725,969.996991992982,979.556693004594,971.107943045059,1026.25476068529,1238.66018462762,1189.67308995555,1331.47042644097,1185.29947486432,1191.75618291929,1190.35925131577,887.39331363301,1076.59587680851,1044.11016463054,1242.49480825806,1243.66384472281,1268.37817638802,1016.64227584967,1034.75853076671,1100.68317850245,1196.23983802495,1212.31848803511,1321.45774364189,1041.77705429489,1137.02941442722,1170.0166848484,1322.12165676939,1362.0931363785,1332.78732521314,1180.69990960371,1165.43759085254,1212.80565439248,1337.44550178067,1352.18493071256,1406.22022978912,1017.68787807575,990.0227663521,1118.56964897689,974.470983444855,930.973449702925,1009.61721058433,1014.55770217698,950.205847910943,1016.64870091779,1453.12420377394,1495.45253287633,1540.01891191361,851.229318794811,549.871701187595,983.370185102781,905.140716699935,829.029634668561,851.2328601345,1179.0882418423,1150.57383969386,1204.59581333752,1381.83264723845,1459.10791066455,1755.63753254423
,89,1148.40292279718,1196.86437766571,1148.3097222769,1134.92124850691,1198.76777298247,1085.64267480594,1053.51366208307,1175.05933620401,1185.59881912377,1450.19129658211,1435.9500392538,1395.65358723094,1271.08939311567,1151.22397875081,1324.48085429814,1090.85395965724,1052.67315630319,1072.47360361073,1135.43911522365,1199.04571365702,1237.57635467472,1807.30579205488,1584.96519678175,1730.70154951148,1353.37860904884,1379.06585884841,1373.53785614785,889.377905023525,802.568441374433,841.214433186188,1386.06295664591,1436.99922023697,1496.88791164512,1572.39923394227,1402.23462708141,1580.5235517343,1384.51113361278,1388.67224590816,1389.13468649053,1148.71365663397,1137.20322938978,1208.73258813156,1592.15853167922,1513.91913098221,1692.25798329457,1530.82752897552,1529.16862625155,1521.10452022663,1221.08849099019,1476.81056181385,1438.61131189148,1295.77163463556,1299.60922588399,1324.70384852418,1396.53636319581,1413.87159201162,1502.96027751799,1491.05761037959,1519.15681329806,1647.18658997941,1361.40847329071,1484.39319816298,1538.51255226134,1630.28457657243,1692.36847643859,1646.75380581874,1567.57924487529,1553.14055145646,1611.69747463559,1718.88745936514,1734.34402333033,1797.07203877798,1280.959110299,1196.75855842104,1388.45281901842,1339.66370578019,1287.93515848041,1396.33668326295,1339.84463744233,1256.09567432268,1328.51741524027,1867.43877875516,1936.13176309888,1975.35971764338,989.927487560447,590.669004444996,1159.18699951888,1238.28548146836,1142.46770806307,1158.83842767856,1549.5404792955,1509.13658737182,1580.95491536034,1793.3285136646,1897.37903926466,2259.91842530623
,89.5,1661.26699699114,1728.33702343153,1663.71256458817,1451.50528208367,1541.41832110274,1394.38122260907,1317.22566553768,1475.39132835432,1483.12839861551,1746.89469917245,1729.52899945284,1734.15130865184,1792.25030255217,1594.2067477372,1850.66207809069,1453.52294085774,1410.0295050708,1433.41050646315,1408.78007511892,1493.63267098233,1538.61534690168,2199.64285957633,1922.25159817559,2151.08321084261,1855.74657322201,1896.93889413833,1880.19286125776,1212.23200704249,1094.40320184038,1154.60226660428,1593.58334134547,1642.99887577389,1706.81466342579,2006.83915807073,1777.90325495049,2010.6471620235,1866.28238586563,1862.71083024512,1857.33123490583,1316.71072248196,1306.39682137715,1394.43772899302,1904.02831846033,1801.45692099572,2001.84337701444,1873.05002468119,1878.85488649193,1863.18477786032,1575.84553419855,1901.55461262189,1853.38878776182,1327.86691575564,1330.75709961073,1356.03760476099,1826.51832873309,1825.53130504203,1925.90799603316,1780.97686752773,1825.0392095,1963.35681908905,1679.78492682102,1816.67086780511,1893.88780090737,1892.7676958618,1984.72223365466,1921.8656297552,1952.64848152256,1942.43471615493,2012.83178545065,2073.07698532769,2085.72849232454,2149.55192653803,1540.93986931776,1379.58105049589,1628.12037987436,1742.03703071162,1700.11530094012,1831.31466785116,1698.84337284982,1591.24006138452,1657.31415426119,2204.93691757438,2303.37160747913,2328.16694138647,1112.4623383864,610.111787427747,1307.0509694105,1620.10754938285,1500.0319562018,1509.0665932686,1895.63507349446,1849.75618311422,1932.29045199571,2130.07254102729,2261.60916993547,2666.31218838579
,90,2150.02316354611,2228.67652038801,2148.20713867647,1737.55506709639,1860.39039808914,1680.39406179351,1545.49510701489,1736.1387216424,1739.16420380552,1923.9849337434,1905.90061373613,1957.38137452144,2261.17611394914,1987.47976248684,2320.37284322783,1826.23846063409,1791.68544086322,1813.76573012645,1641.36806118177,1739.22997039177,1783.96567686748,2400.56936653822,2086.08484527625,2383.50243424318,2291.46042508287,2347.17781221422,2317.07231652477,1596.95788936687,1447.18207657374,1537.30108437265,1735.89672260635,1774.64237970804,1831.65661287816,2296.43272922311,2025.43649402505,2313.6675827085,2276.05458979461,2258.41245333705,2245.69903250165,1425.45183328208,1420.6180908414,1515.20591238042,2056.0843481603,1940.91912364407,2145.5412612717,2098.09764914739,2125.78012463978,2103.13550239348,1854.13476473215,2231.84243407383,2175.89553014014,1353.75686576727,1355.03695122989,1380.82564824909,2159.23133987872,2122.82637454195,2219.74616937717,1982.4208043726,2038.63955165216,2175.43291760207,1910.61290854506,2049.74379919882,2143.50803007424,2042.245069106,2168.97248083023,2089.6579511263,2217.47481183448,2213.45793744816,2291.11644842345,2261.56625541319,2276.0185869298,2334.93604452767,1717.22095841248,1491.17222621355,1776.74644727805,2063.7621421942,2046.81444409071,2188.84395680843,2002.38399623139,1874.44592770453,1928.16557919678,2340.2868857041,2474.70131325438,2477.72349187805,1173.41443454793,599.257731802507,1385.98874905769,1959.6605603801,1821.0210984368,1813.56938020764,2102.31998967529,2059.04445060934,2140.40783147903,2268.38271231149,2430.21262434593,2848.41175002339
,90.5,2564.38966791771,2648.8898302219,2555.34737277926,1906.67666566108,2056.74838962883,1855.03794854564,1694.1044505146,1905.92771549966,1901.47295576241,1944.13480343955,1929.22410958346,2012.84636869396,2626.18182443507,2286.3940946281,2678.51703236601,2129.87443540249,2108.2827892787,2126.61525277225,1781.15783122036,1888.25012545792,1929.00360934694,2322.03069044988,2003.95112625803,2320.50057685778,2603.53116181173,2670.80005202678,2623.85122718621,1972.69615659851,1798.61632851897,1921.49220273267,1747.14035991284,1764.05648658772,1802.52765228695,2390.39167848147,2103.56776953014,2417.28846977457,2563.4894204122,2524.63276128214,2497.59286264827,1472.495521287,1476.80832548298,1566.26351398602,2002.33959520397,1889.51760296553,2090.23182381116,2177.47442525811,2227.84018557901,2194.13189332532,2016.6923465426,2420.13617196664,2360.86274746762,1354.82386394828,1356.4072295108,1380.60147662496,2341.06247439765,2265.36753572597,2351.41472199144,2050.96977375566,2111.12837866682,2229.07192031028,2022.24177513129,2147.37315612501,2249.53786656534,2024.78159597427,2174.78274381427,2089.55910782554,2311.02658505911,2309.51087694167,2390.65095647232,2268.3279533501,2278.552408841,2316.73729702584,1805.20300862913,1542.61787874424,1830.51184990721,2255.21785383182,2274.48131873012,2411.46836979991,2195.53797777642,2058.07625468605,2089.27695443286,2225.10635458861,2379.10707922461,2361.00053789888,1201.51951153591,586.038315954041,1414.64798324576,2194.5094361442,2046.22440492348,2017.34913447909,2133.94397225967,2096.78088636404,2171.57883596038,2147.74441344156,2322.59571547804,2692.96327484176
,91,2756.35036175426,2828.92135989838,2724.38424514042,1910.75517912942,2073.80796180891,1864.88245582438,1714.71556807218,1934.96422883315,1917.55523580989,1819.1702712146,1808.6095551741,1909.01612352908,2724.28029502059,2325.20552304831,2750.56573180779,2267.92913744211,2270.40134680323,2277.77094134818,1795.76647027582,1906.3598233211,1941.77807742072,1988.88719931295,1695.87306502325,1978.71036008959,2646.47213484479,2703.3174105617,2631.34754188899,2208.45384638803,2026.22554647895,2175.0634183605,1585.7531464207,1580.17187347224,1600.58505700198,2271.41665370722,1992.95438236386,2305.6064030704,2592.4520041834,2517.67833416344,2464.04227440107,1459.6822785227,1475.8780655411,1555.22124489728,1750.49776638788,1657.99595578525,1843.12640642006,2077.51652719495,2156.17590987058,2108.40028441127,1948.43338554913,2338.0873487638,2275.16873384065,1332.69254827566,1336.09999516774,1355.69554246526,2313.45858292346,2200.27724485589,2261.50024590954,1953.45737985588,2014.32549465223,2099.30160470355,1910.98932238486,2001.94830735144,2096.45523835759,1795.58082088967,1944.81721369808,1874.24876461338,2174.37150178262,2175.64763147403,2255.06957535484,2114.36577410395,2112.14565224734,2116.85185735617,1729.93858716868,1453.37639398195,1693.61249268549,2222.20575044621,2286.77266807585,2397.3323298852,2175.82713598875,2041.25613774641,2042.76135838751,1888.80608652219,2032.36212898584,2000.26995304372,1154.58810726564,550.724222424408,1322.61496162152,2207.15927795892,2059.84992955199,2017.88695255814,1954.31507690922,1930.47688609311,1989.52515545849,1814.98909658198,1973.44131532431,2244.49885827116
,91.5,2471.80512675565,2515.75779586756,2416.30424715119,1742.73318650825,1902.6868173237,1702.26492059038,1582.12715168146,1788.86372963053,1761.41298723224,1589.53662689353,1582.44524880589,1689.18022761502,2356.19157499921,1965.51464886491,2355.14852268706,2158.35466088019,2195.330145424,2183.67252342854,1644.91999246435,1744.37702160633,1770.33351600332,1509.36128470047,1264.36813665605,1487.81678122414,2253.11175434297,2286.97578256003,2206.49152505454,2206.32264372695,2033.89202419862,2195.86672835798,1327.91312020667,1304.20756493572,1312.33744971257,1887.02807606533,1649.6566893157,1936.19673171209,2200.4791858577,2105.80861665363,2039.75522103523,1356.71979211819,1383.89766086443,1449.02372448726,1371.22883367014,1308.69051641466,1467.61190939329,1768.6282792659,1872.67291166615,1813.49894476656,1581.98222615587,1905.05385384835,1843.94229527987,1290.08273465754,1297.06586688284,1310.31419767645,1978.87496333454,1845.78413887103,1873.39583303282,1691.72772591124,1745.11657571416,1789.82238040632,1528.00540697966,1587.04764734463,1652.15977318041,1427.82432632906,1555.55530167454,1510.5151000568,1795.105953077,1799.40318598669,1868.35157640029,1791.94348845421,1782.47904429199,1762.78493213825,1413.42754788992,1164.56048355809,1327.75209314928,1899.97332865364,1994.61010186711,2068.26373037296,1903.05586526296,1785.07047598578,1767.70914459226,1431.71424120038,1545.32717476051,1509.94886792166,949.436820780993,450.610471446279,1053.10212777804,1941.39468583988,1813.60516968266,1766.95886681319,1577.12181317218,1567.89703426701,1603.70537713036,1382.93786147576,1509.22516714192,1674.59203032864
,92,1861.28747700179,1882.12689046839,1804.23640314015,1425.84566909824,1563.66887320916,1389.63696094894,1344.65602131161,1513.27073855315,1483.37483641335,1335.29452685193,1333.43727443108,1436.95102463616,1725.55358760817,1417.75402498211,1712.17220719092,1816.81238894569,1872.90097363956,1848.41189582522,1349.37627002442,1427.77091767569,1446.36968608065,1024.09838402828,839.437200284108,987.746443858987,1625.50623275407,1644.53325667542,1578.6642804411,1971.24216368661,1823.98149626529,1981.68458490511,1051.05893688261,1012.24236964565,1010.59183152985,1360.42277966316,1186.11297054334,1407.83036322286,1582.03641796745,1499.96860078442,1444.3734279582,1174.74803327377,1211.50133396793,1257.38712551385,985.527632942703,947.748965772695,1085.6924491851,1338.40696252348,1441.3520848869,1376.48930645976,1100.50612647839,1331.82791990875,1282.92816223594,1191.02839913185,1206.56997812789,1211.35503111248,1462.60717580333,1339.16289412252,1343.44880295478,1331.0250944098,1366.72332985268,1374.17473939951,1054.37926076471,1094.29034469426,1124.88712539518,1045.55065317435,1141.58425560091,1121.43428336058,1303.70222941685,1308.38397746493,1359.8126122656,1387.3848910227,1372.03930424048,1337.15620975979,1001.21269227011,815.238477893076,906.082240068067,1428.82589190078,1527.06917281022,1567.26888561283,1490.35126337563,1399.39174250751,1374.29948119685,988.017954132132,1060.16349714458,1030.72865567318,671.432997234523,327.326439953277,732.331860127602,1509.24848883142,1416.34377382307,1367.27181658916,1137.0741714214,1134.6221447499,1151.90325474295,962.748717640682,1046.17631490842,1110.34061172827
,92.5,1248.09588374499,1255.78459103714,1198.73648790106,1043.32255316047,1139.0625556818,1005.13285421614,1061.13739373522,1181.35474248006,1150.9865717708,1091.10616176581,1098.80566633253,1184.78796682906,1122.84113495573,904.451872953606,1102.73728514877,1351.27733870214,1405.91882976306,1376.9882466814,1005.11075771255,1063.21039121167,1077.15318125346,632.391898148952,499.422310413806,580.362136628948,1040.24234081739,1046.8162516922,996.380684072401,1562.73542625458,1452.10450230835,1585.00661622752,772.544365579675,724.650463477837,716.984407156958,885.635719263796,768.529161544183,912.977952973497,1009.23804199453,945.610483913904,902.936528030677,956.055080553801,999.88788631916,1027.2971217743,662.672591356785,639.997573964718,754.514694876285,909.23931991315,991.471670620527,929.593308457612,672.714178756238,822.432533500473,786.064777871154,1007.27890586753,1038.65612936626,1031.17196773829,981.455373663645,881.161355380898,872.529221813934,951.246658808655,969.389772339834,950.777477014458,641.471214820049,663.440785913703,670.247355723998,699.383825425723,765.51581779285,764.201628759374,842.641459625225,846.373728611843,879.111744764747,998.737977472271,967.774290313221,924.395705108187,644.632002018663,516.234971713097,549.015152409201,969.118977645378,1060.72432477296,1070.90869610102,1055.12742649159,991.337105609735,960.104170180703,629.90250885256,659.300023187232,639.953620721132,435.003208458732,226.4790246155,462.227787670536,1039.80072259852,983.554523008165,937.929337729897,744.7255755476,745.03953384488,750.525345484086,622.841057399724,656.882645651249,639.109633409574
,93,681.841892959416,677.975669994945,640.086868276942,700.128806213066,749.032978748814,654.960744875972,767.227617818901,837.052883421385,810.800957834143,835.042121354545,851.583350946605,908.216070598794,580.53767367008,445.752358508694,559.162921576043,889.218789255806,935.002801888277,903.819905648844,682.636207566997,718.018767241993,727.905490732062,380.831478542748,283.06164919137,314.229438108501,527.428572270556,522.921623546723,489.208608753609,1086.62701798615,1015.07381102089,1110.83031719508,535.766614837576,485.4239357433,478.714740296576,508.37220986698,435.306486670397,516.803089576254,509.516650135,466.636422594151,439.301007166689,719.19102239088,768.42536875372,779.881229996138,433.744484960719,412.895502613247,494.626059356724,543.868970161639,601.880470614656,550.061807019203,312.409024029283,394.057377080337,368.950757342306,770.192836181574,817.232640862014,795.58707266308,580.74323984523,505.333020257158,489.413080181822,621.425313996078,622.115475061717,590.947673291709,298.864587126862,309.359428420741,299.790272095744,421.313939416218,467.014782696707,470.066586913645,470.430380341722,473.721443738309,490.694311616337,674.920762994547,627.609857585248,586.389110122984,339.495426372822,256.933623315203,252.854982162442,572.219734201975,649.28904385202,638.411756245624,664.044231740791,621.720670095054,591.650873266528,381.667911114556,376.0810792263,365.431147885267,227.350358866581,131.786163568718,228.678949842639,613.82772474919,591.464519088313,550.243208621734,439.655599971997,442.111032001868,438.797052524119,405.69228631686,396.549105105102,330.675525571662
,93.5,236.095541001874,230.238531151289,211.513181276724,445.339645364834,457.543201536805,393.020788927578,517.794278113839,540.182190539961,523.690320606327,597.283448402871,621.114979934767,646.644122152498,182.068036102621,127.107042670658,168.721058087541,515.850643646056,545.183075503268,516.735965530483,412.952551119221,425.805159409023,430.945805337641,257.576844690842,181.982549206277,185.01239908114,160.69582542998,155.672611774021,141.481847077121,668.991190855465,631.176749666935,689.837465423648,381.687138427979,330.970654624225,328.218365532688,242.894357957969,201.936845573293,235.556626237401,151.082419516182,136.924725460404,129.062738026393,490.535120570981,541.597865150741,537.013064458887,301.694013944522,272.723254398207,323.85342206863,277.496428469054,309.52594791369,270.821027816879,79.5676831080883,112.863690364682,99.6663441097892,537.720032106197,593.587327933644,561.111023814027,292.914716874392,241.744134334741,225.96508975377,379.598095369571,365.269823514866,332.87626981138,82.1468786394399,91.9850466009914,73.706883273101,250.718396894333,287.786913888427,280.705469503484,222.354527046941,224.415523499683,227.689149359587,431.369120923998,379.286043415597,348.63303565923,125.526655342943,82.5303764087553,67.3207184925543,296.504397137737,353.961539943731,333.177378216458,384.502550318911,358.389496544748,332.512470426815,241.532072268273,215.262756255562,210.796199072809,71.6144957826116,57.4664933822029,70.6424765932104,306.264583563509,311.088858547043,270.377449380099,245.666496425345,246.660273580314,240.934508108217,293.906212622076,260.097671431148,178.870690214686
,94,43.0631701865499,44.5899966978919,34.9443415227227,288.052154969866,273.116065093156,230.473700412286,381.629434460977,374.902077011475,364.148836659171,485.680807716685,516.297873392825,524.057505314659,31.2417973277271,20.517528524811,26.5002583334214,280.549617544408,290.95443314752,268.735323482732,255.738080181626,256.953215623606,260.257321982079,222.885737894591,156.790844917254,149.300443873938,27.0968139723078,27.5366883455142,24.149749448727,403.612610444472,386.068043458549,418.829476761868,307.855049226625,256.152553167422,252.382341684494,125.397975326903,99.675061537292,100.859379615744,18.8575608712641,24.2975081783642,28.5016922496076,350.99680980942,403.765077785927,389.123412082608,254.709955767437,217.806436983867,250.516620544316,134.480772652371,143.269265712634,116.131559452443,9.08851564956228,24.9593258845408,19.2975813707202,379.993229504952,445.498746059862,405.898767397333,169.176501159525,134.472699585268,123.66177067347,243.293673115633,219.945789728287,190.097210918789,18.4903270418276,27.6674821532946,12.5453309527035,184.569619908711,223.285902954773,206.047677299626,111.467520220729,112.004035836763,107.780357591613,293.148439359901,233.238530382556,208.848223545885,54.5645071140094,28.4582889721559,17.6560461362106,176.980827372281,221.193508696033,197.105447723135,248.759927844987,230.706102437667,206.643767149071,191.151162710432,157.461067486468,154.463223828002,13.201533549122,29.6275255565746,22.1703788046884,151.762585757634,172.053797049636,130.20147389165,166.444638913186,164.709256965923,160.450014785415,248.665564786516,200.573292613181,113.455420859168
,94.5,26.9494063270671,33.2023913206154,26.2233050025927,229.25448530803,194.028416585382,159.217426833187,281.162525009974,248.542988935391,246.378809961802,316.458897182422,354.980553368497,333.436434226688,25.410626893966,21.1806325467001,20.8285390634334,174.14333265798,168.016103804621,151.321058309665,163.266727576539,153.557684170434,151.758151772478,216.391759525407,149.989851806223,141.647956407129,28.1202097050578,29.1501238286617,22.6137498862967,236.175158010138,237.913417426209,246.656930243967,245.081887497442,189.82562457923,187.864992558093,98.3530459577446,74.7360050405877,63.138959272485,18.5092356666343,28.7676161096041,30.4934662275269,228.199334556298,282.205155707213,253.691828770818,224.670107513043,173.637159871962,180.36770464367,73.5178021759385,71.9018064724478,54.2749735643795,15.1583715083669,26.7407026575285,24.9224740485646,227.417539083648,299.709320988937,250.960510067685,165.432331910797,130.29785095572,119.966772102564,172.585167066116,143.367539366925,119.192466217954,23.8216883354457,27.9305112941141,17.6421923200438,129.940828557965,178.677821198778,140.379727285861,82.6016704838231,82.3377961001598,70.9018029817292,216.132582936554,153.386727853702,131.637415221594,50.3379118540339,29.1680061418855,21.0847008297707,157.884299253587,203.967821142934,174.077317565761,204.037815989815,188.420418843484,159.801497755025,147.646847151637,108.439495983422,103.287621734991,15.0174798570985,28.1244906255437,23.8803567392783,96.3340100883556,125.678774791822,76.3998742412276,144.511119966455,143.283641570896,141.736600674359,225.122964132628,168.180753617235,79.0879723861112
,95,10.8060200695667,13.9158995508002,12.3284037439946,95.5355351434876,75.8996841146151,60.5072020707523,90.3259445090042,68.0519631196407,71.1323593083114,65.7165558704764,84.2472108020228,63.7101833853714,9.44050167070066,8.55304940330961,6.61587626693438,60.5640716945292,54.197776420168,48.2153408914204,46.9988322889826,38.4599573149321,34.7485904586673,89.6529122010392,61.6704384930624,57.7051502291664,12.1475934087581,12.2183648828711,7.59167276417736,63.5674497300831,70.6173452930711,67.479732204965,84.9969203816431,60.0245018578549,60.7656144812855,36.6576270596192,26.9423990341619,19.752936711036,7.47058868076294,13.1259534787304,11.794789424907,57.9991506957804,80.4480544344915,63.2566769539719,86.3281242233471,59.3579222253992,53.2079001464258,21.7402386186342,20.5625240029776,15.1135062533342,7.232579874414,9.70569544362218,10.3677237326623,50.4343041332464,81.3578913353888,58.0822847840747,74.8037434313218,58.0361846951604,52.9672427325876,60.4198193999192,45.8306340455033,37.2895712885786,10.7025965774897,11.2784993277086,7.08796985905303,36.9851999418676,60.6912877078368,35.9618282933557,33.1298493443984,32.7017655738856,24.7116238541415,74.8454208455221,50.7344283764204,42.038461224494,17.6446884265521,11.2839481256214,7.76224657637897,68.8858403152911,90.0144189288932,75.3117664750447,82.6714711629284,76.5527915662869,62.7852485430196,47.4368740198934,28.1682222404182,25.0288665682657,6.78018771552854,10.9700096751143,9.38433624063009,34.5502360841224,49.4234424538574,24.9320868807134,58.9799552535308,58.8727492072495,59.5566351506557,89.671451158429,63.8266593809489,25.2604275289664
