,Cycle,A1,A2,A3,A4,A5,A6,A7,A8,A9,A10,A11,A12,B1,B2,B3,B4,B5,B6,B7,B8,B9,B10,B11,B12,C1,C2,C3,C4,C5,C6,C7,C8,C9,C10,C11,C12,D1,D2,D3,D4,D5,D6,D7,D8,D9,D10,D11,D12,E1,E2,E3,E4,E5,E6,E7,E8,E9,E10,E11,E12,F1,F2,F3,F4,F5,F6,F7,F8,F9,F10,F11,F12,G1,G2,G3,G4,G5,G6,G7,G8,G9,G10,G11,G12,H1,H2,H3,H4,H5,H6,H7,H8,H9,H10,H11,H12
,1,146.142916701552,209.968977654949,183.168745912044,135.706464353756,-144.411040702606,-138.786307994722,-150.983966815424,-96.9788716984567,-99.4966971402246,-114.752843389373,-141.644681442922,-305.639377851594,11.003972522456,48.5669754627634,79.9596194195692,-65.9008487343781,-70.6740113362866,-90.6610029386266,19.0227933037022,0.591268812137059,33.4649381304771,-63.9031295110308,73.9978050721984,-199.445528366377,6.04384825437955,65.9831674541711,55.3951388770793,-87.5314345379174,-17.1946542451205,-100.575763304294,-109.2512257491,-31.5049492000089,-31.1368501070428,-71.1155396046724,-85.1508411326286,-192.86974629819,17.931310484787,37.0526224562173,45.8683414785073,99.3275501499647,-29.0320858402793,73.5654723576063,-2.03542244286291,56.7496835186903,-14.7595792188331,-118.565640686495,-119.520223317269,-180.494977151475,-50.3969409171932,35.531715632721,24.8447084204681,-3.90511250824238,-77.4447925642889,-26.2474712140956,-112.770882659343,-71.668051703291,-89.3033049278674,-240.721861845421,-269.238122583309,-316.356958531929,-12.811007022382,38.1896676910355,41.3148795128964,-35.6794530527241,-12.3057026614733,34.8917751082154,-161.449419700817,-139.719525143391,-116.037611522255,-287.470849984988,-231.835439585984,-299.140017551699,-14.198534036419,29.4763666362587,23.9826261626849,-152.459167420102,-115.346017808492,-174.518791676488,-65.79684328435,-96.4664186966693,-91.4887272955439,-67.0232128373755,-29.4183162004374,-104.109924358226,-50.8065571427169,-12.789872556129,5.48069991738976,-106.498756520054,-130.594905029935,-62.9994159774433,47.082250489766,-0.487886429364153,50.1752354780856,-132.006322337729,-125.710201555805,-166.500398096377
,2,223.527454661212,280.746589565955,268.29935198672,48.7151915707345,13.1601734101114,-44.9183472631958,33.0413988184391,-5.26401671129315,-19.3344811672396,-23.5705597430187,-12.2937923510235,-83.4518186890309,37.7353258130543,48.705681398309,62.1495500879819,-19.9102811975936,-39.4676141719356,-44.0303820633198,26.3613800265612,8.91860566188734,22.7761117556438,-17.0499736397742,74.207961738899,-55.8596388286496,35.961194192425,44.8496644984643,46.7515870164889,29.1067412785014,54.8715936078424,24.4382156759984,-47.6903324035939,-9.75838110982113,-36.3886154373959,-49.5854000600066,-0.894903723190509,-46.5187194690725,40.6550568968887,49.1162577853083,35.5425403544641,98.2654545506393,87.8951684174972,64.3529264427998,105.792064675554,28.9119491088823,64.2662535652307,-40.0956055479437,-43.8508571451466,-54.841322074155,10.9966952125305,30.8528601042754,22.1139265823158,-3.00124419410349,-68.0913543138231,-17.3938292883631,-12.696143344634,8.45502429649969,-38.1353404136426,-111.560484603495,-125.413387516995,-102.20640700737,30.0737822306728,44.9995458891299,40.1921220599697,2.9793319817054,22.2161943293759,35.7033536422168,-73.6453947384998,-56.5866391373565,-57.4036228473433,-47.5412482503325,-49.1798481192818,-33.3015177046927,15.4563234027401,32.4909060322098,17.1646299354734,-59.4024824349999,-33.4163650240334,-61.8663921551888,-16.0138473415573,-60.8912563472131,-25.931511486704,6.41352024838307,-10.7267842210422,-11.5937959641287,-4.87693145552203,22.2206512999983,29.4545379102856,-30.3405542324144,-34.1870109520551,-6.03207467095308,60.7847695973105,2.31917650329888,28.09161445274,-30.2091849032004,28.5607974367031,-45.0905540208814
,3,278.932328268097,344.521851485153,315.458028929495,24.5516355265354,14.2530990353189,-9.74353454413904,37.0716737105104,-13.5848457845186,-14.4824302987417,3.23412848739463,-0.2079991941755,-14.9580063336052,23.9561752102954,28.0670054066095,39.3962360884752,-26.9123960715078,-9.53481419893251,-22.4638706081842,-10.9923890732607,20.5543934626548,12.666882381498,-35.0177789198679,53.4028013842944,1.50711122899156,25.5398091088136,34.5711831366561,34.249059749287,-5.74072320035702,34.9589954345865,0.198540837458495,8.6090868715055,0.0737019212356245,-14.9026857142144,-0.788526096310306,3.78841679315883,-22.9882409594511,31.4503358608199,30.8098479858663,35.2777465197978,11.3020375828964,17.1190073412672,18.688452543156,117.635278694377,37.6503382296996,25.7177204416039,-9.47492135688844,-13.3013753941095,-24.8911278818105,22.9279006549014,27.5547165362341,26.5219370394252,6.29775750283625,-27.2504596654053,-9.21939687359554,-2.83248263130372,-2.68303533393373,2.24294558556358,-53.5105793485982,-35.3872399280062,-42.899608026386,27.6339224121939,34.0445965891768,26.1195847852396,3.62717752941171,-4.12902238407696,33.5624997681098,-19.5768450577034,-23.8052627922298,-18.368076780549,-5.60776082211123,-1.4177507398108,-9.3739655929603,16.5702913777404,25.0444799140141,15.4364599910259,-17.2442903421997,-30.2747915490745,-20.0169366197861,-21.0156061377984,-24.7630364866855,-9.11728581826901,2.42266432395627,1.56795357518422,-6.9890395492057,11.3770358494512,19.6945006475262,18.9793904382122,-11.4933327324779,-2.30581513071411,5.5019689404844,8.23219142961352,22.287082224293,7.62947370508664,-12.1661063990068,-0.710974775362047,2.57824186684229
,4,371.909771024135,424.116231166759,396.415638706014,12.4245705356734,12.5552246460484,12.5229985598016,19.1475500007036,13.7671809492804,6.60805446001905,12.7811623546513,18.3629079437051,-22.3104923642532,7.70411402878926,8.0308281116013,17.1645604099576,5.32525491474553,2.49829386548117,1.99303683715516,14.4804887317059,14.0903645263461,24.5539738447915,18.9510774616338,41.5706754971034,-1.05415089195958,15.7762075218197,19.3384503546004,21.5331655180289,5.02233112787872,11.733257961545,12.4751974860501,7.24699720320677,3.73946818792501,7.1397622531349,-1.82139237362935,1.11250159538031,-4.08853386047122,22.5742104969704,24.6278740609705,27.3667601484976,8.83370884118813,-28.88787743584,13.4313634558657,41.6883812637534,24.6868179278154,8.14258349178454,0.149561420319515,19.0575409411404,-0.661330603886199,23.1531988494253,17.1600516114349,14.9517690174016,3.99587694260845,13.0634689940707,3.5812381987871,0.117428697963987,1.09474944629801,13.2499504904117,0.404319209110326,-12.0980912689411,5.31183258079,20.6764002163827,15.480825126946,23.8785495433076,8.02200010467641,8.4077020722525,12.644806493945,-6.12236546962595,13.1117942602395,4.3515021504445,30.9462772184997,23.937455836427,20.3768956196782,8.73283234801147,20.6443075341494,10.4330479639266,-0.45871552537028,5.28420183592243,0.911282390467022,-2.60174772022401,3.88218609824071,-2.75022349259598,4.66302537352203,10.1785358554844,11.5816101801738,6.50343298449025,13.2367845385415,17.1535536446308,-0.165165490278014,-5.56457550322011,-3.17034694462745,22.6923547556471,13.29780324487,10.7744050669899,20.0214666455959,12.4991871779803,6.80343404032192
,5,498.781118074963,567.153838312576,520.92436824248,-1.98381912949844,9.99037580911317,9.68666060133,6.95676170177649,9.626265193172,8.05867053639849,11.1241018303554,22.7957979932562,15.1412001005792,5.27665416144373,-0.970344079562892,1.72693467850877,18.8280453164771,17.4127689347642,11.9412228213423,12.2348655908045,23.0848857743276,6.40970300212575,8.49041565424341,12.1477062164613,30.9868926119925,3.83939605339947,6.70793855175816,5.9933292289661,7.11662781501764,19.5073243610477,1.98930735247814,4.83670362216435,5.52463396290113,8.2059490720203,17.3448254519772,7.09051257594183,27.6294346053737,15.8489622999941,16.8332351580093,19.7614355731375,20.3734818523171,-15.8107672088609,14.2594918699724,10.9665979736255,-3.80580308614844,14.469652675336,34.2512905849799,31.6602396528715,8.60510720289039,20.2038578958691,13.831114304865,12.5229848073577,5.45631820267408,7.14786022721637,4.52472729544934,12.4329262529754,8.18780596131,-0.151426074487972,37.7415969638678,26.9849341931931,36.3880350745294,21.7338198806583,19.0207004640097,23.551278475099,20.2014273881468,13.296416806581,24.5439364274989,19.0726945214101,18.6000238181387,17.8886410930791,31.2251628912818,35.6410007629802,35.771980714062,10.2226632093661,19.5184522769014,15.4190760673155,11.9186683579519,18.312277121835,18.5093968476904,10.7043495796152,6.46702900519267,17.3298289265404,14.7655051978945,16.3535234280535,8.39345616553692,15.8860012006289,12.6457438124562,14.8581590521098,14.554663536228,15.5894757874958,16.9602047545723,13.5633943407611,13.6431696657655,12.451012913516,-3.46753750189419,16.9493682023258,13.81689078815
,6,746.659208883393,804.185712304577,763.573073571941,3.55773361100182,6.20475669559892,23.7651720161211,-9.30685086516678,-1.60701141393474,6.57745039789188,-0.251743896500557,9.76005531609553,32.0431843019487,-4.76736113605875,-11.5527939626663,-5.85799143638087,21.9740549086491,26.5894003307531,26.7786441676726,15.9574643123942,-0.572302418202526,19.8360378681755,24.8194009509134,-10.9700449024403,14.5227174289266,4.33423673410653,-3.13614729159599,0.506351243307108,12.819588653545,2.15567673425903,10.134535793226,20.6660803970499,19.2364090553565,17.1606959818964,17.5908703608402,14.93184838056,17.7817288030337,11.0778280137947,8.19997629456975,3.24032359612738,15.6968037532151,-13.4114566528751,-6.10547625731851,-3.3242393473538,-18.4404474624407,-2.91135292247964,31.2656101889761,26.3352945515862,30.1187186753741,13.7350945647131,3.32683995614298,12.9059760380887,11.2081949709263,12.2673386687857,15.6269924983735,16.2527827057093,9.22841161832366,1.74940621812675,48.7189237547846,62.8173266201939,53.47515549745,17.0693841581888,17.3110955127095,17.5376440899554,7.53636009190996,5.26863201631932,-4.34832793394889,32.2654215146667,34.2301091674035,30.3274274250089,42.2673342752132,51.2429194558772,42.9568810752789,11.1015768753914,16.4300266143837,7.73857451077674,16.3918060772157,15.4186798385035,23.0809217157057,17.4532562884924,14.4836156414949,4.67581970011452,8.63799722113436,11.5846945446774,13.7385386123533,13.0025979181619,9.62425687151699,15.558168530576,12.4079979572252,15.8341462409408,7.75180444896614,-0.625929114738028,-9.45043648282808,6.12069963231625,16.3424959207987,10.264257868952,5.8656804921302
,7,1154.954219033,1224.76076688422,1178.547347321,11.7358487707388,2.38063988097565,1.26156535722112,13.0996584945497,4.41753424510716,19.6553443198445,2.65948036583723,-23.454628756268,25.5363998205939,1.74314056822914,-2.85232259525037,-16.4357446300655,25.5106792434672,23.2997738415088,32.5835119331787,4.2058101747989,11.6230442219112,-2.92974918048822,16.9309357178063,-16.7876113962775,-2.13075005020983,-6.52095888150143,-7.65959407319042,-10.5368526571247,6.11367356897608,8.82749776108903,11.8824985122828,-1.22419043501031,6.79343664241424,0.394187414962289,21.3139439781608,7.48308115622058,29.5456025478425,7.60398440953668,0.651952200510095,2.50729055234569,-7.15760244399644,-33.1516138553689,1.73256223439967,-29.8293730657788,-21.9461774338051,-7.03783362149443,33.9254106728813,29.9645721824027,24.2156603947342,-0.107430324547749,4.91097199978958,3.87770947625631,6.79264604812124,22.0107045101358,13.5541722175985,14.4987467800402,22.8673584030912,6.16765814059545,65.1115462970884,53.3111743590307,62.5751854104074,5.12425221197554,6.68468610770651,13.0962874670377,12.3645716271349,11.3780622975555,-19.1539453324003,28.4579649251627,37.4052194259893,30.8376196582722,49.1870719029121,54.6670636538656,31.4742322814527,8.47993717069221,8.89353920960912,18.8334323634863,25.3141634106432,19.356436996457,17.7587896115838,27.6032177360539,13.0379735503393,17.2643353716976,10.4394628422633,14.4600335688792,7.61643189307051,12.6361083213551,8.96506105434855,9.9741096640355,23.5893250402642,4.36868039569163,4.53543986815021,-6.00303752837499,-11.9012751454666,14.0585508139502,18.9415698654793,8.58389777724551,16.4186564937427
,8,1885.65775547228,1986.69194789083,1890.51606665588,-0.895065256305315,-16.4054650468097,1.58453116750206,-17.8557113536699,9.32926352941104,-3.77689098063274,-26.8302593960398,-1.21597340343033,16.1158523731883,29.5415623461331,36.7133858073375,6.14754269510377,22.5608051595555,11.3624971537247,23.198345790137,-5.32572902055108,-12.8244427289501,-0.858993715908582,22.6859214159813,-24.6299589006812,-11.8770491309806,-11.5429086805398,-15.0553860141617,-21.5751326681111,11.1131322202964,-14.7564606256929,8.76897916511189,-5.16669104557513,3.29000834573162,4.24090589723164,5.41139431687952,3.53588912992382,17.1874257624049,-8.18942939596946,-5.23198597595911,-4.50277167068725,-7.7253607426519,-29.6278678893286,-4.38798448673151,-37.6451187543462,-8.65707624951574,-2.67157679691263,26.2292708045006,23.1438950288821,30.6974919143713,-0.114953170038461,1.06010948536277,-2.57359651985735,0.578337294640733,16.5286613627559,8.35408890867802,13.2484518242964,16.6490694467884,9.75925767938497,88.244919811159,64.6151533514221,46.044075806285,3.09040928275499,4.45351715301331,0.981545295911928,-0.827721389667204,-7.09067314267122,-15.3735399037269,21.6984013266047,30.1649670671759,35.9945025663055,31.8761487419815,32.8312858814188,31.7963823235805,1.76005803064072,6.83542679072889,2.87698877930961,18.0464931971728,27.8303306885846,12.1397866428706,14.4717277107356,28.1339570537311,4.85113353753695,16.4747281465679,5.44901561812003,14.1351690840029,18.1053168558456,4.43530413581902,6.8205357643792,9.43083992356333,19.0067229019933,13.8726977193901,-10.2683866955795,-13.6289563141581,-8.43667543641459,-0.23222487914245,-8.13220195776375,9.55812764864822
,9,3154.58246276169,3268.08615576222,3142.39037022357,-17.2161315487738,-6.38155573345466,-20.3489021157111,-52.4958867895202,7.74728378360305,8.47834369308293,1.02511451085411,-0.32076141856669,-2.41671982313164,90.6532634688338,110.230605119841,52.7951410012465,20.4504094450604,21.0053373582341,5.72177129824195,-6.93044673988879,-27.8627358063932,-6.99551371619054,-2.30505634259498,-55.3380475166286,-13.791239349639,-20.3501465283935,-20.7782304353641,-23.3423842404973,4.8671040835743,-34.4004260123475,-8.02327595583483,0.944850612928349,-9.0039846874497,3.10782503749579,10.7350828685849,12.0169384442179,28.9022551907092,-12.8982940744727,-13.3576808305988,-18.8016601029631,-21.6689235089161,-8.68718591272045,-7.98716999514363,-46.8825535565484,-31.4795734701875,-5.70423383426896,14.5074537418395,9.84330972459338,16.6950407618087,-0.625629281134025,-2.56096438128043,0.168942970984062,-5.48338107160635,-10.3527004975949,-2.87702059203002,-2.35674434478278,15.0597984872256,4.63063251352105,57.0080175322873,57.0740096145146,34.1390461722021,-5.08841246063366,2.41793580888407,-0.133502861704073,-11.5228107952171,3.17265450981358,-38.7112758288586,24.899591977186,23.8980676165938,18.3868617748576,25.1559821132141,17.934864292456,23.5787061904757,6.55374726063656,4.13296781830013,4.93205284763008,12.3016678926888,17.6451706097305,9.65868718479214,3.64205585802301,9.1745113291654,10.4342281381687,5.21405933515598,-6.83824559217464,4.60346666673649,7.48817802963367,5.6150636059283,1.7417629908432,2.75644190508501,-7.7439364007023,1.32517836871284,-23.7840040760129,-22.0768890434065,-11.5327978405694,-12.9922773240469,-15.3230221449267,7.28502390452559
,10,5007.85287975311,5211.98361411252,5016.24373361435,-37.2199623543311,-28.6640742277759,-5.92318132586479,-43.7091601998363,9.01702327821658,-9.58035911674597,-5.8472250745308,-34.0349542008553,-1.54216897995684,212.82736759823,235.963065373232,157.581307410087,-1.12484862368001,-3.46009763047732,-3.21135402266555,-28.8517999446813,-23.7615551346389,-19.9442017063921,-5.46374588741674,-56.4330883558014,-16.0862243820247,-5.19635538583498,-13.2769446409811,-9.8195852222816,15.0090321145963,-35.1410645609503,-8.95528245021706,-23.0794686923273,-5.26455713970972,2.79470781149575,-1.68041275193355,-5.29513659748045,-3.17302009448849,-29.3708044463401,-19.783281169166,-26.6974829760156,-26.6749208803503,-29.9799834141704,-19.4993810783726,-71.1983236257111,-16.323480085739,-10.4881841975002,58.4452655055266,22.5679685026707,11.9597905923092,-8.63620048583743,-6.46370982745157,-7.35399748876807,-7.56443413676061,-3.28470406820088,-11.663937277277,-0.0542455414706637,-2.72966462161457,4.13922705524783,42.2419175992309,38.8431505035824,27.4206630045628,-6.61174053088325,0.360454133297026,-5.87216106895721,-14.724816186701,0.638661728093211,42.5363889646196,21.2167287291377,10.4347752472131,25.872475402075,-2.73936362972381,3.58481471253435,8.66304030516221,7.37300379623321,0.407320716689355,-1.17296289021851,3.81705497172152,1.78290761330572,2.65227700990545,6.22091065807399,5.42275193673777,2.66040760534815,2.28081660347561,-1.79548285875535,1.10795117638645,-0.370530265304296,0.816899446339448,-4.05902256299578,1.95151163922674,-2.2236814395601,-2.53873704631224,-8.22971703484836,-8.12735881825574,-13.3004777341594,6.75342779602943,-12.436878879751,-14.4675701750348
,11,7518.39130507252,7821.81781556147,7598.21055059249,-49.5844954194527,-15.2171536964906,-34.982882498176,-36.7554139656786,-1.89243780543984,-0.795955597697684,-15.6096232573964,-30.2077157784915,-2.82282744434815,452.633056139419,491.884414468349,365.493237822418,8.97080894978171,-3.2099202141053,-6.10977495385123,-23.110526899869,-28.440534307485,-23.8706624271945,-6.94993341728332,-64.7607372531529,-12.0187621250625,11.072479087974,10.2553541463976,11.4103145306835,-4.49733553229635,-47.5939192254864,-13.0941153800395,-23.9238853643928,-8.7207785509836,-3.58628941428105,7.41932868210824,1.39923956858365,-3.69155930552461,-30.2385840842308,-29.1165159946795,-31.3479788453615,-35.4325266999167,-16.2712581631386,-34.3414195261448,-72.5534712354238,-36.5298272743094,-36.6589534763134,62.237386248341,-4.22788122045858,8.4779155540391,-26.7402443300107,-15.2100855996796,-15.3833583862779,-12.4012389285817,-15.350965427162,-8.82636583982639,-13.5526986160639,-12.435771116252,-3.86517643332445,31.0133061504785,21.2205093811554,20.0953932653956,-11.1181781872019,-10.0062779883465,-4.52136084643917,-5.9029325536776,-9.61421954240541,35.1197111560286,18.303659412466,11.460510286508,12.4153227462048,-9.66551176151734,-29.9329163208986,8.29818784264353,2.76758921399505,-1.81986962610245,2.23963916959747,-0.658711288097038,2.10677228826171,-1.2166423369963,-11.316767057564,-0.203283527862368,12.221819132461,7.02586110150696,-4.91527624607988,1.78501015626171,5.56331562126434,-3.35005204745539,-3.97811971922056,-2.37549418576236,1.50264282767603,-7.09175442233209,-13.8123749041133,-14.0456822219003,-16.3356881501459,2.34912612585686,19.5352985574718,-7.79806912058302
,12,9988.61530423377,10426.1694743381,10170.6459146649,-44.2852723484993,-40.6838978557043,-16.1056869202675,-50.9148568505079,-0.222092078047353,-10.6258274125084,-7.91230605903729,-29.2940869512404,-6.72464326487716,861.21704051708,921.967648923068,709.474730334677,-9.26698098644738,-21.6096648212697,8.95474558069873,-49.7563565088403,-23.6018122842579,-39.2650981452261,1.28180664045249,-93.6462680837867,-10.3325512540414,43.0042486443226,59.4409754470516,60.0833948193012,-15.6573790507846,-65.1963737639144,-22.2035440982108,-19.8107778888243,-1.30511398541239,-8.1836307507856,-0.413656694861857,-14.331410562465,2.44103309792445,-32.6613826770508,-28.3110217244466,-23.3034894765306,-40.9657710352058,-21.8780328025823,-69.6679885904778,-76.1219867565887,-38.8323415992945,-46.6659974698086,30.1867890324174,-23.7992636159079,8.03914205955516,-21.9552709790441,-5.20347254767694,-17.5925316548773,-17.0716951359937,-26.6106687979536,-10.5452537815345,-16.4525743807808,-29.8798974985675,1.88595686950612,7.82567382424895,4.81222383694148,10.5901175917043,-12.6151603795852,-7.63419906535728,-9.29493319857284,-20.5228629092726,-32.6062902212198,17.1204823165263,7.54009790022246,-13.7361952720075,-3.22087183377698,-2.54410062779243,-16.4996588803933,-5.1714367641689,-0.326651232621771,-0.959614882379356,-6.62223853462729,-8.20731594605786,-21.9173341740207,-1.60145458323495,4.32113466108058,-11.5445853738529,0.154911142419223,19.7815148041664,17.4959365279319,6.99876086843869,-4.21094386565619,-2.20270442891433,-8.39170987033413,-1.89918308709639,-6.71863920780015,-11.2495502282054,-28.0033875133013,-19.5849730103218,-23.83725858855,7.80941267073104,20.5286247280583,-1.46750019419233
,13,12137.9243645949,12704.2803438843,12450.6148283018,-53.8412979276436,-6.891595430081,-12.0616774039336,-29.028392839622,-6.57631140052945,-18.0544041536468,38.3942039131871,-0.0513891157206672,2.37649615534974,1674.4664581135,1815.27248925632,1465.3791192717,0.927349842060721,6.95556673948522,0.165708465159696,-32.4792609313554,-27.3657419854935,-39.4546604572588,46.2486194609573,-29.8436525267116,49.3088989451589,118.26015304094,209.979261377331,157.847200734956,-4.51213556908442,-58.3888185034848,1.73146761258977,-31.0193693217607,-18.2758686354646,11.375469571356,13.8648688896337,10.3701383617954,2.90707384739744,-26.7092315682048,-22.6073420543607,-22.2428722612676,-45.6213792926519,-2.5201538361689,-47.6233080408892,-98.1863308109459,-5.34992302633327,-27.9241624175393,11.0603855239442,-19.5066835898751,12.8378575700426,-27.2247993939727,-19.4221757569267,-19.0635131658055,-15.2518453306548,-18.6854549881409,-21.0853626426451,-9.29001295561284,-8.48441516398452,12.913867488136,-13.3099724540862,5.03889573892593,-21.2376261047957,-20.415292543853,-12.5950964699487,-18.9476901600692,-4.9327806286783,-16.5819398144104,11.7555960552836,2.34463406882605,-23.2891851306649,-4.75405419922026,35.9836344044234,10.8789354989931,32.537006853674,-4.180871658873,-7.79494331760361,-5.29861175622864,4.1334173277628,-12.1496554253063,3.62035483768705,-4.5719689512498,2.92481223410687,-1.10589633400741,56.6512307992434,18.0870396352893,31.0035550799912,2.84102142237043,-6.86399320307282,-1.0872184719392,-2.25499782600855,-3.36237016578161,-0.788833653105939,16.2916562862265,15.652785621658,-1.57609076658264,66.9145891035059,107.812316569958,32.1239919844083
,14,13811.5181757633,14499.9762100063,14250.4436147962,-17.678035177636,11.34230925048,-4.35904657268475,-0.638802499213853,-5.12348274812393,-7.962098743772,88.8846365329973,68.9776815302248,53.81948309359,2994.4341373873,3212.42113926572,2679.99192590657,32.4374016230377,31.6174546521106,21.7270521801966,-44.6258705160581,-27.7373669667431,-28.049791593483,158.640498103392,29.0779239445201,89.4881840759354,266.891911895347,399.83488000017,343.794446297985,-3.65770758294457,-43.7542079049599,0.368334739781858,-32.0494599033154,-1.00679332077561,-8.00154839964307,58.2580938803385,18.7112694366006,4.93592451535369,-1.79662583847676,-12.6748050378737,-13.0955659309384,-36.5503919452894,-17.7361040213455,-52.8709400419484,-56.349917154379,0.754314365838582,3.16438092094359,5.14163932578595,-30.8423057348982,2.04417701382044,-26.2541272774433,-22.4557099591448,-24.603804379025,9.02045925238599,-15.8896244094431,-17.9050544025704,-4.2031378703432,10.8937428208719,37.5226607992608,-6.12749177220212,-11.7594771169461,-31.7453628032945,-16.2706053461916,-16.535930237118,-19.8813701438403,4.0442759173493,-4.69167675084282,12.09638738383,-3.44017179298316,-31.5765270558659,-24.9033126636168,121.332941377317,119.389469428163,99.0997811600537,-10.2540510707886,-9.44436388847498,-10.5253413299488,27.06092654036,21.3595066692214,28.4667914937418,6.87738107992482,-5.9385080410575,0.512184327022624,138.377342980122,78.0647822531446,71.4615068304984,0.0380480434914716,2.76463069503734,-3.31932141873767,13.9149142058559,20.8325683969815,0.987562504690686,47.7505227068286,43.3329522047388,58.7774291575788,169.555570363329,238.488340781823,69.5808451911525
,15,14884.5301379345,15652.3331514234,15422.4829721725,28.3992393458375,57.8718693560604,52.091925905308,6.23127255130385,14.4219960832197,31.4540640648393,241.344492196777,192.067551084125,126.287350390643,5016.07903789909,5263.21535534345,4589.27547850384,102.970030578712,54.7275152546954,86.7332662108347,-9.43857819912228,-10.3467188207942,-22.7987932827509,315.891532431669,154.437341959028,222.445637654171,516.777717856367,740.144193560634,672.99663290518,26.3713215515672,-13.6429153612262,37.9081077982573,-21.7832309263922,2.34556616399095,9.84208148724974,106.442845979165,97.0751848664568,40.9126073798625,22.3657764866521,22.6917240611829,27.1278594439855,-30.9108842316,-2.36935732106213,-38.8175637770019,-39.0311176394171,74.9584021460541,91.1825627712315,-12.441629967816,-25.4356683148699,-10.5588976661511,-23.281058327907,-21.5215305128113,-23.9111006973544,4.46510319976369,-0.136186076819286,2.44992920464756,43.1702255509172,34.8176043470739,64.7728050733258,-24.9048793679667,-20.0661607905749,-32.3310297790613,-14.8546836619525,-24.1772152728172,-21.0646691882075,46.1330483903748,51.352696969474,45.7946057834688,5.16774292451555,-29.9702478903801,1.11097405344117,323.959507506417,305.579292498982,257.840431628971,-11.097218350109,-7.11555796981793,-14.1580604715909,64.1542908326664,49.9251037013146,84.3440895816548,2.1838574697631,6.99540686341061,20.2021512575266,306.074243025831,188.37702600679,148.971007837422,-7.57127967298038,-7.79019293552938,-8.14374072356441,47.3893843441492,90.5618451787632,29.9813845675217,154.448402143051,148.948700776089,143.538959491836,367.771279067403,479.382621520057,135.010815732427
,16,15587.0067381177,16407.5282187021,16178.5889453071,87.1283690022174,158.421187402719,153.167859065408,92.1851261370284,85.7154450772341,93.1275913661175,484.938635332794,369.424606779232,278.619559473313,7510.48187827543,7629.15036077476,7121.90508458632,197.916830792263,163.459627882397,202.409971211724,1.60816317508034,5.14568152649372,7.27905868695052,575.035856866405,382.824641179532,455.166059975842,950.965789237675,1304.12532291078,1233.06257075561,85.3973571489842,22.0114006555905,78.6804766882924,16.3777777454543,31.5727325315274,59.8273231826388,201.152344676504,187.623065377502,83.8182486259147,86.0318200379788,86.6110249260992,88.6784108913171,-35.0848360303735,34.8621183176765,-34.6079423386527,56.4222694082473,155.430488093512,197.874155507496,-27.0498824060251,-26.8145524333568,-0.440047593131567,-28.545351865554,-26.5615304565035,-22.1236275867523,30.0149122328949,42.0480690722598,40.9440132134077,111.035834173488,97.7177838716234,131.5770248604,-12.5047408992941,-4.84933953869586,-28.5279464300547,-20.218185756371,-24.9361036287037,-28.9838611720506,106.168175264722,130.421902918972,116.903394575884,4.97229271338801,-13.5016296379563,18.3009707687779,639.884326302557,640.711741140351,531.80355471332,-12.7394774948489,-11.1112167211577,-15.2158922631534,140.03892198719,130.966284364102,174.373974890153,35.8793275309272,27.756439837045,58.854448766795,615.968696854512,386.530003805256,298.433441965147,-13.1997572538685,-7.28755912330871,-11.8871594898674,102.651436903203,170.260766071809,70.258026589755,366.947038546614,327.304825408837,339.845568593351,680.824216880545,889.387277588563,292.555740695865
,17,16078.2798454006,16914.7797443885,16697.1242882747,472.181513938122,331.72909040306,313.147642887598,164.326285502526,167.005226037523,220.012291667486,878.009619300694,675.855781661776,597.253720437247,10013.1612827895,9937.42329959818,9755.61575707233,404.603721040174,352.147008016218,404.387650978046,80.8691909351146,87.495147091644,104.737936898358,1044.43358631999,798.592473265588,909.634056554763,1724.48202488016,2310.12441782252,2228.71775547512,186.106889956593,121.165302475587,187.358988404196,70.4261721593684,110.679198030728,152.759601210408,396.216910435316,365.140320113318,189.835513533906,198.035247866006,198.643999200701,199.392616835692,22.7921275692515,70.0579016432293,12.215441808512,214.975776886484,339.207237491568,424.363898136951,4.82340542237216,-3.6287702205409,6.03474541491869,-21.9492335220766,-21.6706135410113,-14.4021750255597,99.746218260565,106.779493354643,113.478778478147,255.565844065131,224.398808304355,295.674169426691,33.7810537607365,39.5966415506773,5.47216292539451,-26.6791022586567,-26.3566228056297,-23.5763567217437,272.347029965635,316.976665007878,253.402938362366,56.8192574100012,36.8007996956931,68.7576173517773,1198.685447867,1260.91610960338,1042.59812275197,-13.6794957794,-20.7403022376911,-15.6498014556728,302.080107209067,296.627795226777,369.43378105953,123.387867767375,107.279938797787,147.834047176906,1165.2718192176,762.096929102736,568.387501487506,-10.8147810128457,-14.0300972556179,-12.7809690604618,220.081727820032,374.711552559042,153.29392080377,708.0692530912,661.495184761918,691.021935829835,1218.10831861668,1581.23245116571,566.557199124507
,18,16419.6481261609,17268.6313645189,17068.3179382686,824.333775646079,750.956543937036,708.373538214788,400.19052528825,426.204810310133,476.310895483561,1731.75329144218,1331.2397335727,1216.4792178926,12202.3747179338,11895.5223599119,12154.7246690904,897.033225812414,758.413766289457,843.095287131737,236.8828995806,269.904117654245,299.320669476358,1933.26551337696,1586.62708597118,1748.3603062466,3232.21703287424,4236.5963147243,4101.30209454778,428.066669530281,354.542038967395,449.297634703868,229.4663277421,281.035300804706,347.437985769042,853.612413103003,781.650642425386,454.660378385232,437.691273761044,430.359831671737,453.808503720605,98.6306384339587,165.112415823789,128.424664098193,567.583561148504,736.027592732789,919.788406617907,107.935054959973,99.9912462602806,77.4492862275038,-2.55479678050779,-0.171865921718563,-1.30863030093587,255.949663356041,278.832428979604,282.460709630159,540.425342313167,533.274210431853,605.605084759523,204.963714154959,180.582729887665,103.225766304709,-21.5424396542003,-26.6113830833456,-29.817287740113,589.429897506736,674.102954247081,585.428999954464,191.412667530025,133.788261390766,225.117335147355,2217.93185742956,2430.68011433711,2051.56782783647,-12.5738551698314,-21.011296020125,-13.3551771673992,671.271795307266,661.888118622443,778.068251408713,297.409648016155,267.645140021383,342.124882698548,2248.8091362278,1510.17861534157,1155.88532069766,-13.6131544675864,-10.3507113994474,-17.7830960810788,509.691952609284,739.948632771584,357.609518836346,1454.77476802609,1322.17240972332,1404.57611864941,2178.52654220324,2814.48172697588,1142.88363101028
,19,16640.6903521851,17507.1781741658,17326.1298208386,1400.37862053785,1382.74186888614,1343.95635075337,819.585540350183,835.617278526131,947.714569364935,2849.3522563431,2232.4708035425,2140.79913392114,13809.2304185236,13300.9198804722,13967.5710475282,1629.38841478888,1447.87633890328,1584.32767736327,514.636531111186,568.642572197095,613.889826436416,3001.13702146743,2527.94139562753,2889.8150179617,5352.59318492984,6807.92791609652,6599.09270628574,828.728757327579,708.532789606048,838.424665517876,504.667910986202,563.15041327926,672.695058171377,1588.94946035049,1462.03571694397,892.709679950432,833.041617507359,821.352819491961,876.41877907678,268.081374062711,285.536529444082,298.330491007113,1121.87352531021,1365.25950984049,1706.77229964685,308.208428178641,266.577007050668,156.531947985711,34.4586046346421,28.0554542849068,30.478649514308,520.108837663314,568.1339894091,574.525791819493,1063.82516812509,1022.22888951987,1183.96202801441,452.260982999851,449.21095001807,278.475519256726,-26.6707073189555,-26.6330974700059,-29.2434152400201,1137.61537485881,1312.96250423859,1155.59284967114,404.586072063106,362.066375897455,483.697969974841,3308.80277774321,3932.21658595798,3478.67007291488,-20.5740968203372,-21.72739169753,-14.6437190172774,1288.91971010499,1253.85994998489,1475.3236156702,602.594250060691,557.300348790348,680.548403412025,3784.73068791675,2741.41409369258,2118.95676495563,-18.4020348145805,-10.2011991015843,-13.6369314090325,955.759533940804,1402.05362400211,699.919207974867,2543.2547735638,2327.27378030448,2510.16138470444,3221.21555448128,4294.11388761121,2065.71048406485
,20,16767.2346523201,17657.5254735061,17471.3338414041,2098.66015802882,2252.69950704131,2173.35597586831,1299.34377662507,1424.95057880908,1566.44642452767,3875.50215239658,3004.08111919032,3148.3410209142,14794.8636838382,14164.7818283257,15124.3728547923,2582.46498659006,2344.63026050683,2543.62846783785,912.471129560616,1041.24508916767,1129.41237708844,3961.99677451127,3353.10867928516,4045.66598218419,7783.34552434751,9445.67236863532,9070.81065015654,1419.61336916229,1236.11246647452,1425.52628470918,909.343436161262,1015.02491731865,1190.16894643762,2623.44697554763,2421.82611065806,1548.27542892363,1453.40855428006,1433.57423305455,1521.40368003403,517.051766874927,523.516714793686,596.945482667568,1806.51182799742,2177.87646549581,2768.05212201289,629.572508989842,555.198108607577,318.997188105041,88.5770992606931,78.3339051263511,73.1027294226014,949.553776997538,1030.83263192458,1027.53319234104,1806.76490853848,1757.0051589595,2033.86607086077,877.061048279302,853.767676450203,585.351060186485,-18.9362642953465,-30.6112212410799,-19.7567427362574,1970.05189283204,2239.5287107993,2061.45366737017,749.303499046438,728.24261525566,925.736191912802,4106.37158129717,5203.4375843692,5046.75971796491,-20.1363350810198,-21.237321217659,-16.0849991819432,2201.42741439305,2129.4970637475,2495.77501000294,1095.55220841379,1021.45373574757,1202.87922892435,5444.53143628588,4406.29992405867,3474.82265965864,-19.9105660624891,-16.9954426889281,-21.4935391408662,1708.94443520902,2407.39226620067,1275.5544356965,3878.58462060916,3593.61104204933,3861.72637183066,4153.71118918894,5528.46062489028,3398.96252028753
,21,16858.3571260024,17774.2671616424,17570.0336042625,3091.19583212899,3475.49691383425,3390.24261208217,2111.96176077026,2401.32314519381,2585.00276164949,4788.16065229341,3886.01047718455,4408.11315126066,15418.9122397222,14715.7887270254,15873.3100289422,3958.65680219121,3659.48152389433,3999.78476676086,1664.09669603895,1888.64527384334,2052.62380248242,4842.49482891163,4187.06487391304,5349.12388959258,10176.1867193728,11929.1350216279,11381.1070593322,2395.93773654982,2091.09155910506,2420.58586013096,1609.28111339143,1807.68317638972,2075.71081931212,4222.03062249579,3952.34685820507,2738.44741398791,2557.52273615612,2531.87307919634,2695.64631721777,982.724384774676,903.333014608088,1135.71910193154,2772.03964652731,3419.26574990593,4307.08801439544,1252.69969772387,1109.05563127783,624.867529231566,179.218084386338,175.812960334667,174.298276337689,1737.29681751106,1850.12392391451,1852.34592952058,3029.20637364118,3000.506194016,3425.99020039334,1643.03054904829,1624.04691750188,1178.16211988999,-14.6835270284782,-20.1819624389027,-17.3309845669546,3399.34482644645,3712.96662861392,3549.836056204,1407.81929430805,1399.41154550452,1727.91525552858,4511.88673047941,6259.95450986068,6612.72522615131,-19.7965577279629,-24.4027084743429,-15.8543768575873,3633.26322585968,3388.62033348222,4043.26614628572,1941.05114016457,1816.93948432199,2127.95892671506,6967.70308950971,6668.93480612807,5536.76366589581,-13.8867402537689,-16.6648098594533,-23.788180381679,3021.78756125707,3900.487383156,2285.04157203137,5391.02394647549,5071.4838223888,5442.67629724777,4852.05989349133,6554.12563256735,5472.88561393415
,22,16951.73205152,17884.2258216969,17654.4122091424,4096.61902698761,4857.45404837261,4770.06409626195,3033.46229614578,3716.2713764217,3887.48921712361,5451.31478342646,4297.36813813493,5387.13834816277,15870.7366989911,15132.9641945572,16413.7624167187,5385.02619482856,5126.10456203118,5623.28359337714,2782.4622370932,3249.66445255486,3475.80413884776,5604.62735836764,4877.23242754622,6486.36380851634,12366.598206666,14097.7579639129,13377.6171363057,3750.25132011259,3244.36518201862,3766.39885869848,2665.78705853257,3029.94750646951,3425.69989614279,6209.61026479329,5903.3662883012,4515.71349427558,4382.72713553942,4324.40981819151,4568.95993213172,1799.83865910278,1594.48721160947,2040.52255575811,3868.52807936118,4779.49244684741,6012.13858052184,2369.34119743031,2135.47093150501,1206.73481029051,365.398281746208,344.429280517194,334.178049559132,3014.03223433979,3121.53627207601,3165.33413615266,4649.76374115454,4666.44742897303,5339.54613763101,2802.80574283264,2869.15846939156,2196.72734950781,3.20006213898887,3.59654620785932,-2.06631166636726,5442.61357828777,5586.64264756031,5644.06925953967,2540.43159185532,2564.09908202321,3127.74247447775,4804.94501517355,6937.66879791027,7858.81613743917,-20.5610600198452,-27.3944211024473,-17.6900618234176,5397.9221200256,4902.08930773299,5883.6053466219,3235.99603664046,3090.21711621429,3560.9870310496,8154.97827450467,8781.05699127016,7850.59323016922,-19.2368988742719,-21.8180540811009,-23.992048579611,4940.94978015558,5723.86130358539,3935.75842873835,6660.31570962401,6233.23038331811,6812.35974704607,5408.0209940999,7276.60029335773,8084.8070450605
,23,17006.8204846384,17947.0350384563,17729.063051066,4890.90105221861,5967.24231818119,5887.98661160217,4052.78447018558,5196.25781770575,5085.6408730457,5776.22042750366,4590.07651991447,6020.39448258825,16171.0685849797,15400.305193905,16761.6687816986,6474.23873943892,6302.18098358373,6894.99472545646,4454.91189889369,5225.9280854059,5553.72080364287,6124.74166466791,5339.98084199711,7246.70956473145,13986.0271899116,15631.0647488016,14789.9483751279,5224.82575870983,4650.17477866947,5228.12238210823,4119.39642998944,4781.6329078937,5288.22621272722,7923.84055197757,7590.23396779261,6823.46087576234,7234.83624402378,7102.7497631582,7347.75198956799,3192.24404954513,2696.22122011062,3521.85880965085,4672.9398034656,5861.24588662179,7319.78918673421,4338.70918368317,3990.30301493574,2349.74027017949,731.034953524894,683.026711772828,669.694465741109,5051.9832611914,4926.23896492891,5161.25258305365,6248.20061742741,6380.75877065776,7261.99291906896,4417.60694180462,4774.5193859954,3940.72183377912,39.4745729053957,48.4717079385055,49.2845690297945,7653.20346455238,7315.35891117383,7813.01402814205,4406.18768903478,4570.74301748911,5449.07221236157,4910.35822517706,7170.7541362198,8502.84638262988,-14.4241764791705,-22.4084589333506,-12.6532729258006,6931.99523236587,6115.4511334528,7348.4908894521,5054.2290127617,4854.61044564966,5563.26883955734,8665.96618895972,10279.1542275216,9663.80127425637,-18.303236730655,-6.60723880387195,-14.9035058248692,7226.88875474296,7188.64933712973,6361.71116070759,7307.22112537979,6906.89635397438,7558.65614354349,5736.14584252172,7648.12489816181,10346.1688725427
,24,17056.2706247115,17983.0684237087,17780.529693948,5397.33110935805,6717.23178776808,6650.80316596602,4111.93964073717,6111.49801103846,5792.52252034219,5948.35829385155,4791.3555002416,6336.85511986619,16377.2178090336,15586.5220501086,16983.8122692182,7148.37284140152,7084.25848787362,7706.01191612609,5562.87161443648,6588.33346419474,6948.63864833586,6493.07981628024,5673.84126242554,7717.49012244753,15073.4752723953,16654.308167475,15727.9813871756,6379.52559843179,5428.76132194541,6373.67516305617,5003.72307441647,5955.17003829473,6466.3679820896,9242.62027881839,8892.9909464656,8787.40548897245,9998.47898913787,9745.39358483373,9910.9882306203,4620.42303829399,3831.05804712729,4979.72077245753,5171.77422462672,6529.75717495938,8095.47024612855,6319.1950239098,6061.56712702479,3881.3669717334,1283.68426877709,1209.31548629127,1180.03293746789,6884.75573470197,6219.27275522595,6808.81337412761,7426.07448161978,7670.30698385948,8689.6044195502,5345.57322921184,6184.66087187261,5760.31811273213,94.8240635009206,110.28658200775,111.120388290434,9343.25865134426,8522.23265733979,9434.51498816478,6281.7726664741,6547.95980607375,7596.24187551329,5024.3067582654,7219.20429518126,8739.64764051474,-9.36574419843873,-21.8543379947678,-7.22881259349651,7983.20005385999,6917.47350459049,8299.82138608453,6191.75779025161,6072.97688677303,6857.04832532367,8779.14791087043,10990.4551248662,10788.2397633878,-18.1505630939564,-8.18584248919797,-12.1394340073975,9026.67597207534,8129.31898060434,8240.27420713017,7444.08479709192,7124.66341303504,7784.76590845767,5975.97507038571,7859.5679967363,12027.7769659004
,25,17081.9350947885,17998.3652777667,17793.2604935598,5619.96170436289,7077.76793974661,7003.18524956821,4080.98481744222,6306.31930388352,5892.89671941582,6075.98394659488,4965.0693992837,6456.81717837233,16492.8873973102,15683.745460729,17111.9753501594,7426.93897401641,7463.96608849262,8063.7890601382,6267.53427315227,7489.60646664515,7867.99170470348,6715.76852437126,5896.1848276551,7949.40756252,15719.2228930045,17247.4061198233,16285.7558177714,7048.03750743156,5999.8807522759,7025.65675894698,5559.63425204267,6743.16275362443,7233.0838077364,9952.21579519668,9599.97598166753,10183.6580104283,12404.9491488741,11998.0780517185,12013.4489989662,5898.638563235,4807.16547601099,6122.88026126835,5380.60105474346,6790.04758077451,8327.23863673071,8000.76484222979,8129.2379720175,6150.73870669114,2301.49751827888,2167.0235084543,2118.17213916579,8339.93056425943,7123.26915990534,8058.97204289045,8032.01707530817,8320.71142997867,9396.10951745963,5819.13792216091,7144.82309195807,7308.88352664719,194.029990489106,240.088705281218,241.846316863105,10212.2453309321,9042.35275461747,10221.8598644941,7897.62875424729,8252.19214265401,9380.07906718132,5080.19049577078,7217.19304953131,8758.54000165886,6.66728870651059,-14.8134357185418,5.97323400100231,8435.53922280267,7282.3114551886,8668.58695132159,6864.27322275202,6857.08123720541,7673.43705001741,8684.51339753631,11100.4941599146,11117.9248486495,-20.3439713700836,-16.9340660801954,-8.37964685173938,10057.9455769926,8430.09049168206,9625.27217817779,7275.47331198425,7090.5619029864,7672.92035502268,6117.77147256002,7982.95462033051,12892.7713764496
,26,17124.3733066772,18037.3789769001,17820.5439162417,5835.91877499177,7369.75664360082,7273.81726623408,4068.09346144309,6329.07722999092,5870.27222877376,6269.20240198248,5175.28533403489,6656.00122294579,16588.8962032293,15771.6142521264,17210.0694298842,7694.23000809577,7784.8549343579,8349.60888433727,6638.75864398346,7916.27763416882,8278.74755331083,6917.33717081796,6104.18128295807,8160.53112017073,16182.3160975799,17684.5606118081,16685.161630416,7502.00878023426,6414.66355921318,7472.37416585763,5864.5188726999,7164.80904852945,7612.91827945028,10427.8364961391,10057.8483856465,11123.433774468,14393.1990730327,13836.0851256832,13706.7844077023,6836.17483304667,5504.26051575967,6875.33745601963,5586.0229172728,6995.77687905691,8475.16847242367,9249.91748533113,9771.54008648595,8429.56430714914,3827.09625671717,3682.68583628376,3595.02249749144,9257.31273055971,7564.30774435839,8772.30176037519,8427.73345107707,8718.32805230389,9806.93409325822,5906.94353292626,7536.50551393758,8388.62763023959,377.54262910902,457.40599235763,472.835809396071,10640.0107603747,9344.2237544025,10603.42299855,9095.03915029684,9525.66538987181,10619.9772233371,5174.18460454308,7320.89739040345,8858.61326014834,29.1008820115676,-8.25603303780827,29.4919187990072,8713.62179428654,7552.37641113678,8913.85728505414,7064.64522109116,7151.9198593755,7943.74415840595,8759.41291173093,11156.0687821639,11233.1261897811,-15.7375076104563,-13.7059090562043,-8.48009467039628,10560.9361602267,8577.01524724425,10384.4137558003,7250.71168357631,7172.75897951371,7711.32651155489,6275.4233990387,8130.94339810624,13387.745022816
,27,17140.5671352246,18065.5113599987,17828.7082345986,6013.74028039799,7598.37312475121,7452.7828604757,4097.56171603236,6281.65948433508,5823.45825291657,6416.25516498672,5313.4681191538,6813.73872092683,16647.2711743956,15816.6520416758,17273.4561207696,7920.26399149331,8051.75113250741,8588.94090901952,6689.65751794018,7922.36857875383,8267.52137272409,7058.05252499078,6246.45960585559,8292.70242929916,16484.5333363667,17959.9590711707,16940.295999525,7744.76565690861,6673.01539080826,7709.92596267039,5921.07131356618,7237.79417848291,7627.75658713059,10693.316084573,10300.3333756674,11600.5960156959,15732.1966783691,15074.7498788602,14833.401800227,7115.84861047214,5688.80128494184,7022.97097768853,5754.01051940505,7155.02706485735,8577.18928106607,9675.82535818923,10495.5793792635,10153.6607135698,6361.68843449453,6316.9861465758,6172.35844039704,9485.7682803943,7546.359462497,8886.57185257643,8654.95032408517,8907.97551087633,9979.1361751793,5703.02261972053,7449.23187134521,8678.65016784421,729.07967110112,906.159715598138,930.144781212909,10734.578489139,9487.1388274708,10680.5946255304,9662.04245438281,10095.3173641064,11120.4819614559,5206.15392783181,7363.19560616144,8924.82526308257,81.7729062842645,10.6176195055514,76.0851483758097,8878.08690517122,7759.95474047369,9075.41348457418,6920.15333219466,7069.3724968112,7801.4709820997,8829.85257528104,11236.5168762447,11254.4335361612,-5.26760874364118,-5.96182701550424,12.9375231075328,10726.5069945765,8670.17125806466,10628.5321614213,7282.17831123456,7258.4554952606,7776.94263928891,6360.76903307089,8221.48003812255,13625.38949637
,28,17136.8518357223,18077.8330604294,17851.0147826736,6167.01457575731,7778.95858151442,7609.99074818647,4179.74154682393,6368.59584439126,5903.41632221138,6526.7846868407,5436.11692560072,6932.86293824368,16681.2206916564,15852.8243190276,17323.5632461918,8128.02554181646,8254.91310364273,8799.92585257204,6783.16380334065,7915.95840696177,8243.90820446985,7162.71090632409,6359.97888105091,8387.56276749117,16695.3515848426,18153.8356156815,17114.341336078,7959.18448933585,6913.17278874622,7926.19472089919,5991.82690520904,7260.56211837643,7628.37716981831,10931.8023635836,10498.1886247993,11861.2466996736,16636.0510841435,15911.0611966987,15607.1846747868,7052.66108890707,5615.61257669561,6885.10576551982,5905.48519301013,7294.05636600508,8687.96357825481,9753.24876697096,10727.9795685645,11119.9485902474,8573.19685234795,8916.27606520483,8744.05250259683,9391.44554910338,7395.12959982773,8759.36570759168,8868.36981998568,9113.80771103141,10164.817535447,5606.33019618305,7327.49535315327,8614.81737081532,1261.36855556598,1574.74032535394,1614.71647747288,10818.4375930173,9646.75596687258,10783.0695325963,9940.89201886219,10349.486509793,11323.5885293375,5225.45213575551,7392.15794147136,8973.75679583235,161.496577371425,50.1773031369712,153.805858899937,9057.7314076293,7937.00658379137,9250.44216597504,6837.9512804029,6997.15040835973,7666.98324398423,8887.61101712264,11332.9295021813,11354.7836239597,10.3711822793985,-1.01174810365683,38.7424761214925,10861.1384030589,8803.22582319465,10728.4473601815,7332.55261693795,7328.72343013104,7848.68559822674,6427.77178225734,8294.7286321717,13813.0143670115
,29,17117.1973407851,18084.4203460607,17857.945216293,6245.94126268737,7882.42347884865,7689.37197814935,4231.10112574759,6423.91877268905,5948.17972601946,6595.9523931005,5496.55397590107,6996.61052735537,16693.1973312042,15856.8095867674,17343.0432169078,8236.38626750356,8364.46418317538,8913.02688242923,6840.37399710888,7905.59540844105,8229.96959828289,7225.87330180108,6429.34105809305,8436.72482828386,16823.7675961266,18267.6126800184,17217.4699640717,8089.95420634108,7064.95375243311,8056.68474469199,5988.97995077661,7222.18284148692,7570.93792101161,11056.5486700895,10612.6114987122,12002.7082200678,17170.2658649335,16415.7482147294,16060.4852563088,6785.04521851539,5404.22404266436,6638.27963836612,5982.0340552536,7351.42291454006,8731.82573995295,9660.28751197024,10664.1548525043,11348.2238132071,10560.7774243578,11341.7758386537,11155.0477858038,9163.01396975976,7206.68055369084,8545.6014686615,8987.55338705155,9239.14037210307,10274.4793522009,5548.84079805036,7287.01971890011,8431.71155769051,2255.01050392016,2796.0010171119,2862.98099015308,10854.3282252647,9703.77656533186,10800.8851171716,10088.0699388923,10440.3196472377,11399.203311377,5212.03327423053,7371.97873509709,8963.96348503347,288.4534425272,106.462642517117,275.844930216673,9147.68464989842,8017.29836528485,9328.65283869604,6833.22358015085,6996.69815639239,7613.39704761499,8895.30985096212,11367.3957749944,11386.474632873,36.7807823308749,12.6339801863669,78.8326749897569,10970.7046928742,8873.94548598823,10796.9539889232,7331.02601927048,7339.66534480864,7856.88653951282,6455.82342133199,8312.58461970545,13885.4997127887
,30,17121.0803012679,18087.9417859051,17866.9638812428,6331.81873233204,7965.92373908325,7771.79866275148,4290.69729666883,6517.82487313355,6025.65007437637,6672.1440389945,5596.10342043979,7072.52002455402,16707.429184039,15871.206363411,17345.0493935268,8488.27134402342,8454.22198296693,9014.6332802649,6933.26148318245,7945.16075507626,8266.91492660975,7274.18684277084,6486.26559005821,8484.96336156112,16934.4546411321,18370.0836275283,17300.7618142086,8214.88322624275,7216.14616165572,8179.68310571126,6025.22020246435,7217.89486793754,7575.38990294155,11174.3105653535,10718.9167362444,12142.8546551118,17556.9970556439,16774.7034870351,16396.0676611095,6646.13755839129,5318.19041792281,6515.11041451546,6075.64344236067,7428.15888512563,8795.16490805589,9771.52804029439,10803.2549012229,11433.966513447,12161.2898500261,13383.6731602935,13173.5954590192,9042.0638623822,7114.81335433423,8442.86804421552,9084.29501537545,9356.57673048387,10379.887752609,5585.00036860579,7355.66979307243,8451.10488273491,3888.97696000361,4746.40732342734,4877.65418058766,10902.1454665657,9756.39238289723,10842.6582654723,10307.5488829169,10630.9803290367,11568.4298113062,5217.27177363262,7366.97183906827,8979.68370487462,531.117591207731,220.05595213093,511.880385404051,9225.02652634969,8092.51409469891,9404.18982199387,6902.05461946823,7070.5062419247,7657.28918059368,8914.5176073307,11422.5598431698,11418.1708028494,92.5292968363565,37.2593863401644,154.245382555653,11062.7313799715,8909.39845575209,10890.5063240674,7355.8832364822,7379.54046202846,7886.87045883212,6489.85903554324,8337.18153043044,13954.6088673786
,31,17116.5947380633,18094.242105578,17868.1644814598,6385.44661570615,8023.9464751724,7820.6490925839,4355.22643961737,6567.31648753878,6078.3761362864,6732.45089825386,5655.48562690591,7125.64624912506,16722.8084603038,15860.9992997411,17336.8197314208,8685.88322338031,8507.8876868787,9063.93309799438,6979.93507918644,7966.37090525263,8282.19560146103,7280.72253007813,6532.60662544433,8500.79524966019,17004.7367168915,18428.7497749049,17356.6595495324,8299.51648136445,7316.4294370384,8264.26045208055,6039.18688380315,7213.97698130835,7561.48094620433,11228.6424507762,10787.8461765092,12218.8342888615,17832.691096177,17013.3364379426,16608.122188458,6533.13841313571,5248.88298328103,6411.25366170556,6127.39797207653,7470.41043651332,8844.89901405305,9878.04665718835,10941.7189579304,11560.9454535719,13250.9538899917,14821.749301688,14604.3913802108,8952.86580104156,7054.69467901956,8366.69654587202,9135.90232325428,9423.78849487407,10439.3902341903,5601.95866372109,7390.50344709719,8493.68775243663,6296.57214615482,7425.82730486045,7669.16305920823,10926.6888170988,9777.62668884167,10839.6140847188,10462.2570425121,10755.7530627018,11670.2021713499,5201.82497022012,7358.51363243171,8964.07516151796,966.995845238153,421.340747325032,920.154759231888,9263.72705178085,8126.36173972602,9436.89357257471,6939.11650593745,7114.81443856622,7690.02374834464,8922.64053006429,11445.769107431,11410.1001804685,173.148494710302,61.4647824666908,302.143131237144,11091.3785981295,8930.66159325886,10922.1629448623,7359.74934391329,7397.38580612961,7894.16131900958,6501.88262505776,8328.43388685312,13985.9585981912
,32,17110.1872432823,18091.1057881765,17869.0828169438,6415.0603582664,8067.93378365317,7845.76548590927,4389.31426838309,6606.49512599523,6131.59463676065,6763.40198082138,5702.8555886678,7148.98221437851,16714.140264405,15857.329542448,17320.1462055895,8858.39484685592,8536.94687828363,9111.05268122424,7008.79233705316,7987.06424042925,8293.46617518988,7285.86870137813,6551.33411153982,8491.74960090626,17048.5663074363,18464.3662091524,17388.7044564437,8360.29567993675,7401.01426748116,8327.20268158585,6059.65639289185,7227.88403093659,7578.94626196536,11267.0791097,10830.0932789118,12264.7217878037,18010.0364210399,17174.896538798,16751.8627498006,6457.27125244922,5210.81793814859,6351.49025631079,6167.50937671229,7503.28002075451,8871.39831926474,9973.7696249161,11062.9510097095,11709.3408574602,13982.16115599,15779.0475872651,15552.0107474243,8899.67866991057,7023.5551386481,8338.54365021598,9172.38234962134,9465.56147355816,10479.2116262721,5611.97891553316,7414.67963731188,8529.41600916267,8935.41234303165,10006.9019469124,10365.6497822715,10940.5575901715,9800.65540163045,10855.4256784415,10575.1616907456,10839.3168478349,11734.238566038,5167.66175671113,7331.54360536433,8944.02080239458,1677.35228813288,750.848673410114,1615.00921831369,9280.26660584685,8144.38010916159,9453.4034610929,6963.7393292548,7133.6745657592,7718.47209697712,8920.02272541269,11450.8136333891,11412.2523150117,329.212257201928,120.6635076273,533.0529964303,11084.7539906749,8923.3779670596,10944.3324715611,7355.51918474488,7417.8598127106,7889.90667077405,6500.84795814559,8326.79377199478,13991.8361726719
,33,17085.8085863874,18076.7959197089,17871.4075441454,6430.87390536846,8094.14454601274,7853.24465400308,4423.2663092191,6625.82710775162,6167.7572090188,6784.42103086346,5737.10053773084,7164.56185671785,16685.9218342521,15835.3898147431,17300.6319299183,8862.21065880763,8544.34972864104,9133.08385515346,7040.50743292463,7991.53945271569,8297.73928942597,7283.29614599013,6582.05027151958,8470.84987290529,17075.4809043742,18473.3296721979,17408.3077340168,8411.48218944539,7462.09508950388,8372.78061483241,6073.16262446582,7230.46627745296,7584.0056377319,11269.9711537299,10854.043654685,12269.9322767754,18131.034153568,17284.1404957428,16850.1693809138,6408.85825494451,5172.72862878897,6303.69091654812,6194.71869325278,7512.94777960196,8887.17097269247,10034.6943692159,11131.1426290945,11825.5440728056,14447.6661080806,16403.7719948006,16164.1166557323,8860.83875680389,6997.92204580602,8321.0546250483,9182.87649165788,9478.72502808301,10498.0069083564,5600.61049919219,7419.27251365548,8558.24543731544,11286.4159991911,12223.1147869506,12693.73841502,10942.9059990209,9813.00801443598,10851.5639507685,10633.4924676425,10869.9650688573,11755.6195853017,5125.88161497141,7298.25430765661,8906.83400286611,2939.43335278338,1378.17336829579,2835.66285908948,9282.7350861799,8125.62484514731,9448.28036698534,6967.50288197423,7139.54156768327,7728.48980659094,8913.80242001984,11439.042401788,11403.8832467151,597.672285722211,228.290768148315,969.62135759693,11063.0073350965,8920.91048933177,10940.471742573,7344.32013350803,7415.21963962374,7878.77996850367,6480.86166043942,8314.62574733422,13979.0705270016
,34,17081.555415781,18076.6995430264,17869.2240930579,6451.44034614017,8128.85768004902,7867.00554790189,4453.0891847378,6660.75031007959,6205.37180689044,6813.72230934776,5765.40885263291,7185.80612571536,16652.7951688298,15829.3190394406,17270.5990435458,8870.44154029574,8560.47909493327,9150.03272186634,7083.620929466,8005.15173886853,8311.34125972312,7297.98397409051,6593.49078476541,8458.60482534102,17100.3835146361,18490.1786782285,17418.4774288388,8453.60995192455,7535.628342969,8418.30875523651,6103.24478926212,7255.74806562078,7607.41175816,11273.5472886536,10862.437923847,12285.4627954416,18210.4332442229,17378.0626357835,16924.1682177061,6398.265377682,5177.64312297121,6305.32130921417,6232.52454278332,7536.24167399684,8908.05238368523,10109.7682517866,11225.6111520852,11938.9033907584,14775.074349108,16824.3396434343,16588.6080309944,8859.77925870328,7003.17709783035,8331.49947445742,9203.23848428976,9490.45580320755,10518.9384496492,5608.41641196201,7444.77653670861,8595.82891345791,13170.162671379,13914.1222607008,14472.3314638217,10955.1489909115,9837.23834320875,10861.4508649316,10683.9379011619,10914.7930466203,11783.5888638509,5087.20165282036,7261.34972366994,8879.77190703962,4856.01245743999,2427.89542014374,4708.7160711867,9281.97851251382,8124.61324983512,9457.3805365013,6988.60604228462,7157.96534772229,7746.68328570162,8904.4553611128,11441.0227348871,11402.5163924686,1056.8917551346,397.389387871141,1711.72491961265,11059.309667477,8920.98768377308,10955.3839832106,7340.90789841069,7415.51823728585,7883.55842908316,6476.16132672819,8319.05671069402,13959.2408963806
,35,17068.8444428834,18071.0628820933,17858.8286739638,6471.33646829908,8143.73412639646,7868.27742090948,4484.11951646048,6688.3765526516,6237.00258137144,6840.84553577751,5787.77743207507,7199.39275226491,16635.5883110256,15805.4073856744,17244.1666207735,8869.60479446501,8554.04548842353,9139.77233595571,7119.98176387634,8010.52287801006,8321.80633689095,7280.78781111959,6609.80803129627,8437.84122653633,17131.542829089,18492.3354344578,17434.7689163885,8478.35874065743,7586.08831573116,8444.35402413573,6118.83490604738,7261.9818813886,7616.21390071216,11262.0210020035,10864.0924091607,12283.21467707,18273.0293251179,17438.8926143697,16978.0636245318,6387.06248706667,5191.77091901921,6300.49873848563,6246.13791710148,7552.34291492059,8927.76992786545,10139.7658420999,11277.3596080268,12020.9153055737,14991.1258969877,17105.370928875,16852.7125661357,8857.98532386969,7001.26213357811,8342.39037287501,9190.9934909605,9493.24582352169,10523.5494442854,5598.09532775487,7457.2323613176,8622.94114483649,14454.9892560008,15035.0008794799,15663.7065891661,10959.5901963422,9838.26112523484,10837.2948967426,10705.3719598616,10929.8484120812,11783.632057685,5037.24827565818,7216.91019131501,8834.06883795401,7446.72068337253,4213.08137685217,7401.84396594454,9267.38068801467,8096.92921462243,9450.20271395238,6991.68303281962,7168.61968016322,7755.27047089084,8893.46007114053,11424.6817547571,11376.147472739,1876.69360839169,704.710227279871,3023.40650646759,11045.897134832,8919.6071733783,10932.4474564501,7334.65900316297,7400.17973667237,7870.83499720546,6452.87363658707,8303.63390225157,13941.810296972
,36,17063.9389703874,18084.2147489404,17845.7002686621,6476.77621416678,8153.17879881328,7876.73416600687,4518.47566434164,6713.86437827532,6268.02320115568,6853.62907310256,5809.0390159095,7215.65350823041,16618.2852245764,15783.495546534,17225.8283880848,8859.85205381575,8547.95249635701,9138.72537884515,7152.69835044188,8041.11205762138,8344.77407044127,7264.16417874912,6609.32596395621,8421.07522049685,17130.3646515097,18492.4537183553,17438.598620863,8493.35790146795,7629.67956053616,8463.71510372569,6142.61743121943,7277.04928272902,7646.23282876564,11264.1928379171,10859.7950401098,12291.1048267184,18321.0591058805,17488.9290571133,17008.0599582405,6402.86332644971,5226.50594597372,6331.43311137546,6260.43040415384,7578.51202203365,8943.72607380643,10186.0697393671,11358.3503458433,12111.0486210973,15145.6254537739,17302.0198447005,17042.3848752759,8874.68773570408,7020.78321950847,8363.90378551181,9188.5109787592,9492.86314847697,10532.328522223,5607.56025019619,7474.83515003002,8645.21356976946,15318.3387124733,15793.0800452376,16464.0247219548,10971.3638899912,9841.96740888405,10827.2011050525,10725.233385962,10946.9531608937,11789.5998915552,4981.16331484865,7170.4652425373,8792.95888298179,9903.6549396568,6860.82680079652,10013.1187445496,9253.64901188644,8085.32822635204,9453.13086341629,7005.5370304991,7182.87038735034,7775.4891816864,8869.73475146076,11420.1866857397,11351.7537976992,3221.99293298248,1226.96067187155,4998.14593184561,11049.1658231462,8922.75751908005,10918.286603241,7336.89617926819,7380.76399106571,7865.04412081944,6442.84978246356,8288.7738583527,13927.8464776907
,37,17048.264656514,18069.8774009535,17834.8618150685,6477.82050429904,8155.63574327455,7870.85809062813,4554.34582891309,6743.84673987252,6296.12975510272,6864.85084547283,5833.73392424748,7221.10699420987,16597.3247181135,15756.6391408383,17208.7632640424,8850.91527878257,8529.67315061987,9141.85491225384,7192.69690781112,8069.27313395586,8366.89840697111,7239.66296981305,6613.46002197288,8404.46782269867,17122.9068007094,18486.3269084248,17434.4610741161,8511.50677852722,7664.57633616711,8487.45727392569,6156.86891725088,7288.69502659931,7671.3339614873,11248.9682969317,10862.3850064609,12271.469837923,18346.0841699707,17508.8350293235,17036.0178392491,6424.32020440557,5263.29815065212,6362.41790307497,6276.57919318229,7597.18859873641,8939.35905885075,10226.8619110237,11410.8357323627,12186.047653496,15252.9361904875,17441.0929396028,17178.4004327002,8890.12507191356,7027.87656394772,8493.57756537253,9167.91624853495,9484.42055364843,10526.5551613065,5592.9910422637,7473.76917198708,8654.43929399917,15874.7127103408,16280.9236795627,16989.8438444904,10969.4488869336,9836.27348891548,10812.1697627823,10743.9700207094,10943.9717456046,11790.516004993,4923.34553347528,7113.61042462729,8741.28398244058,11966.2189896207,9534.370034018,12268.5355967462,9238.74074927144,8059.45029554437,9436.07608421914,7014.48629720237,7190.3341328121,7786.07016102263,8852.43791479473,11409.2034694451,11323.6592897029,5415.01000528632,2154.30018458121,7857.90405718514,11039.1208456222,8914.71046289833,10902.9127562975,7327.13724892367,7363.65634672976,7853.11054864181,6411.77689295179,8256.50546048017,13908.5701455706
,38,17045.0601301114,18048.8742787118,17828.8654048147,6472.58649642991,8164.03718181515,7882.18125158809,4585.30835182558,6763.28008004684,6302.13159754327,6862.87580929747,5860.59426198851,7231.54501118765,16570.1693832205,15737.5582857537,17180.0272773154,8833.27280309208,8527.44107742851,9143.14935921601,7222.06679853555,8087.12844840445,8394.99723997746,7216.09896431728,6620.89014558397,8393.07474365683,17108.5139004938,18486.646810811,17416.4707296295,8526.62645472868,7701.32773550399,8502.80307596617,6180.79172281818,7312.33202726138,7690.44526686525,11233.1857699388,10856.3051408925,12259.5208368196,18360.0413768893,17527.0282319527,17048.0991976477,6471.07111290566,5312.30291019372,6406.17071668917,6299.66978973349,7605.59021597317,8934.63103460595,10263.0971073071,11473.8721989147,12253.0927661496,15327.6517396094,17555.6549140954,17294.4215493685,8909.8893337875,7056.33922037319,8515.08064391683,9162.54947236525,9482.93051320922,10512.3538192404,5590.29928581534,7478.66052291879,8669.34997793853,16256.2744491765,16624.1636277204,17346.7435830481,10964.3888479787,9829.74724966274,10804.2639752443,10744.4226061515,10932.5795355646,11790.0988508995,4866.61547626648,7064.84988878981,8705.65692847178,13477.0747514838,11953.4045606135,13952.7981079879,9223.62454244896,8043.6103945127,9411.14869974534,7012.63732558812,7197.7937164287,7794.49912992067,8831.990642131,11395.2810717135,11299.4212506225,8296.55859892707,3668.46985380077,10517.124752784,11031.1614512731,8894.38703346582,10913.4223839036,7320.33579868797,7344.35112246569,7846.38323109753,6394.560613758,8233.59665223253,13879.6147832
,39,17030.1456265375,18037.8962333348,17834.7713990779,6468.01659568224,8161.83989835262,7872.28872768595,4592.19316873894,6776.84586674417,6312.25626114704,6853.53443030598,5865.26120427306,7213.38513213542,16542.263216227,15724.9504919673,17142.4973254013,8816.08818983637,8505.8228916619,9126.18217354356,7241.19279255416,8099.3196231827,8405.32078844612,7181.89249724883,6610.82267430311,8353.61658093327,17094.9038060061,18473.1910245194,17407.1345744742,8529.20567211993,7729.30128021038,8505.3673623355,6194.62161858779,7328.0522956511,7704.34255899126,11204.2837778292,10844.84138327,12226.4555922097,18363.3924098791,17529.9081503694,17051.69192794,6493.65528490936,5362.87988134447,6441.37681226027,6311.50816397634,7600.95747146417,8929.23586012272,10275.8093105083,11505.004883634,12294.9607896542,15379.3030871972,17622.0127471425,17364.0720429061,8922.82617300565,7060.96817512579,8650.35971696099,9140.92019453034,9468.89207764412,10489.2856083324,5564.94714496979,7475.63355973711,8669.09382084474,16498.2493929017,16842.0627076491,17581.2842560991,10954.5746040372,9813.74331897443,10782.5190372154,10732.0874960163,10914.1479626391,11778.6181487998,4809.30892210374,7010.34187404093,8642.59760182682,14446.5761960622,13729.784350097,15052.1301318465,9197.24873853143,8016.7170329664,9375.58879214098,7006.40622063461,7200.22276464384,7791.69868588351,8811.73608801231,11375.7269655733,11274.2536641036,10964.0250026761,5930.8516285195,12697.708331735,11009.7478180063,8874.70714262788,10910.88796309,7304.40947063345,7339.35878137039,7822.22539079304,6363.28241485265,8211.61103647253,13835.6224655481
,40,17011.0179154939,18060.5428230878,17850.6039635729,6457.05630022487,8144.14713522988,7860.8207637519,4574.25866733384,6776.61380301812,6332.02684345071,6833.09099755522,5864.58654786632,7184.70133687273,16509.4946307403,15715.1879126329,17100.4477286333,8790.08624374738,8481.37408629683,9107.62030267376,7252.09150216388,8118.56350618689,8396.07482000708,7144.5434260978,6582.69931308863,8288.22073900963,17068.5528434461,18448.5322336669,17401.6501083703,8523.70319213776,7745.25975994897,8487.21757265597,6212.7459967571,7328.08700093604,7723.12242904506,11186.4203718854,10819.0743058751,12199.5795447521,18367.9773978637,17531.6823139819,17040.9551326069,6514.81018312928,5407.47395552253,6480.53829438225,6309.84284406963,7586.59714537272,8936.00342794634,10281.4220455462,11529.1882482186,12324.8696897937,15411.6515870039,17666.0936494269,17394.6732297866,8933.48798089345,7059.68382954421,8798.50646247975,9114.40789372863,9452.57085118302,10468.7305334038,5542.93815295375,7479.92858679358,8667.91296390061,16665.5563152262,17000.8301865477,17744.6317194037,10952.8576245301,9794.02145525848,10758.3050932749,10708.9912068076,10891.4472008201,11755.9226191241,4751.28162586318,6956.26501480138,8565.79334666698,15135.319560028,15021.6496519262,15840.5364785776,9164.0405473777,7984.78975590601,9346.90015272056,6999.05285829482,7202.47091747466,7787.88820580972,8781.33800931259,11361.2954310609,11248.5363140549,13417.4092165334,8757.91075957693,14378.6388586752,10993.4291949009,8867.86531903059,10898.5722502535,7304.61662930774,7337.73169515971,7788.76365526139,6338.84869640175,8203.79780563144,13786.9025597439
