,Temperature,A1,A2,A3,A4,A5,A6,A7,A8,A9,A10,A11,A12,B1,B2,B3,B4,B5,B6,B7,B8,B9,B10,B11,B12,C1,C2,C3,C4,C5,C6,C7,C8,C9,C10,C11,C12,D1,D2,D3,D4,D5,D6,D7,D8,D9,D10,D11,D12,E1,E2,E3,E4,E5,E6,E7,E8,E9,E10,E11,E12,F1,F2,F3,F4,F5,F6,F7,F8,F9,F10,F11,F12,G1,G2,G3,G4,G5,G6,G7,G8,G9,G10,G11,G12,H1,H2,H3,H4,H5,H6,H7,H8,H9,H10,H11,H12
,65,57.645043482999,74.1907157756859,63.7014401304382,-32.1873946811334,-39.5339829372924,-26.3074308100381,10.7984714925838,-14.7467571346765,-7.85949594657859,72.9723566362763,55.3007032780324,45.2426517944491,70.1773426905297,75.8002868404524,59.7244761189131,-53.7444089758706,-38.678149628553,-31.0857739356888,-20.651037038564,7.46091322085795,-34.8534751105271,33.7873372174117,24.8103748955959,9.8125352136517,69.212889268365,77.935689665971,97.727270868279,-19.4616963282883,-25.5936585192712,-15.825131267668,-47.8931084209262,-15.2327762233763,-88.6827702407422,7.88050517316242,15.37942395043,-25.7143312738599,85.7827039449958,94.7951044719084,37.4544798228985,-4.01869593936181,-8.95079146581338,-6.672349200192,-24.3057306250385,-23.5492230825375,-9.24563967805898,35.4489413861475,38.525705480205,9.79793214429264,118.315749402975,104.552346606692,91.6334591409,-29.8160681607383,-43.9191245661696,-34.482449362336,-28.5511251011903,-21.415176964359,-53.2275681447422,1.88049341038868,14.0889766677565,-34.8226469937676,120.393339694639,110.479901996803,105.852105677898,-26.0639190377319,-33.7237842779441,-22.4624583809191,-36.3021726842494,-38.8783293194415,-26.5326298239393,-15.4223699962372,-14.1782751671176,-37.9170941543002,85.1419136619979,90.1760802957619,99.1817938217719,-42.3223174144105,-54.636686367121,-36.5828427799761,-30.0595746921017,-22.069998610436,-36.1516730200005,21.0393732186521,58.5259816012967,43.0380868851776,108.304328091915,115.915557148624,81.4581868183582,-3.50825707009335,-12.8553885584647,-14.0186646526226,17.4937933846686,11.235813787408,-1.08145573184129,-13.3515995256334,-15.6291793395935,-50.123247094748
,65.5,124.897594213159,160.746550847314,138.019786949283,-69.7393551424593,-85.6569630308013,-56.999433421754,23.3966882339309,-31.9513071251308,-17.028907884252,158.106772711932,119.818190435731,98.0257455546439,152.050909162816,164.233954820984,129.403031590979,-116.44621944772,-83.8026575285294,-67.3525101939936,-44.7439135835543,16.165311978526,-75.5158627394712,73.2058973043968,53.7558122737896,21.2604929629151,149.961260081458,168.860660942936,211.742420214603,-42.167008711293,-55.4529267917496,-34.2877844132754,-103.768401578678,-33.0043484839834,-192.146002188275,17.0744278751827,33.3220852259333,-55.7143844266943,185.862525214163,205.389393022471,81.1513729496082,-8.70717453528232,-19.3933815092623,-14.4567566004202,-52.6624163542479,-51.0233166788303,-20.0322193024585,76.8060396699857,83.4723618737771,21.2288529793054,256.350790373116,226.530084314501,198.539161471952,-64.6014810149313,-95.1581032267018,-74.711973618394,-61.860771052578,-46.399550089443,-115.326397646942,4.07440238917025,30.5261161134749,-75.4490684864982,260.852236005049,239.373120993076,229.34622896878,-56.4718245817526,-73.0681992688778,-48.66865982532,-78.6547074825426,-84.2363801921233,-57.4873646185388,-33.4151349918488,-30.7195961954262,-82.1537040009844,184.474146267657,195.381507307481,214.89388661384,-91.6983543978904,-118.379487128764,-79.2628260232805,-65.129078499549,-47.818330322606,-78.3286248766626,45.585308640414,126.806293469473,93.2491882512186,234.659377532483,251.150373822019,176.492738106445,-7.60122365186999,-27.8533418766751,-30.3737734140168,37.9032190001185,24.3442632060496,-2.34315408565408,-28.9284656388672,-33.8632219024557,-108.600368705286
,66,115.290086965993,148.381431551366,127.402880260873,-64.374789362274,-79.0679658745858,-52.6148616200808,21.5969429851707,-29.4935142693516,-15.7189918931558,145.944713272556,110.601406556059,90.4853035889055,140.354685381061,151.600573680912,119.448952237827,-107.488817951745,-77.3562992571042,-62.1715478713822,-41.3020740771235,14.9218264417127,-69.7069502210502,67.5746744348312,49.6207497911905,19.6250704273066,138.425778536727,155.871379331941,195.454541736561,-38.923392656578,-51.1873170385347,-31.650262535331,-95.7862168418601,-30.4655524467503,-177.365540481485,15.7610103463189,30.7588479008614,-51.4286625477139,171.565407889997,189.590208943819,74.9089596457925,-8.03739187872179,-17.9015829316268,-13.3446984003917,-48.611461250071,-47.0984461650742,-18.491279356112,70.8978827722981,77.0514109604133,19.5958642885894,236.631498805953,209.104693213382,183.266918281798,-59.6321363214752,-87.8382491323437,-68.9648987246678,-57.1022502023761,-42.8303539287167,-106.455136289485,3.76098682077281,28.1779533355189,-69.6452939875362,240.786679389276,220.959803993608,211.704211355797,-52.1278380754675,-67.4475685558873,-44.9249167618304,-72.6043453685079,-77.7566586388866,-53.0652596478853,-30.8447399924758,-28.3565503342397,-75.8341883086041,170.283827323988,180.352160591521,198.363587643541,-84.6446348288218,-109.27337273424,-73.1656855599513,-60.1191493841957,-44.1399972208669,-72.3033460399961,42.0787464373052,117.051963202587,86.0761737703592,216.608656183831,231.831114297244,162.916373636722,-7.01651414018761,-25.7107771169308,-28.0373293052462,34.9875867693436,22.4716275748151,-2.1629114636844,-26.7031990512619,-31.2583586791898,-100.246494189495
,66.5,115.290086966026,148.381431551348,127.402880260859,-64.3747893622176,-79.0679658745598,-52.6148616201435,21.5969429852025,-29.4935142693416,-15.7189918931194,145.944713272575,110.601406556078,90.4853035888473,140.354685381119,151.600573680968,119.448952237848,-107.48881795181,-77.3562992570392,-62.1715478713481,-41.3020740771444,14.921826441725,-69.7069502210798,67.5746744348494,49.620749791221,19.6250704272647,138.425778536731,155.871379331921,195.454541736543,-38.9233926565671,-51.1873170385511,-31.6502625353523,-95.786216841886,-30.4655524467662,-177.365540481496,15.7610103463394,30.7588479008846,-51.4286625477366,171.565407889923,189.590208943841,74.9089596458075,-8.03739187878136,-17.9015829316172,-13.3446984003945,-48.611461250036,-47.0984461650469,-18.4912793561061,70.8978827722267,77.0514109604446,19.5958642886012,236.631498805936,209.104693213429,183.26691828182,-59.6321363215034,-87.8382491323773,-68.9648987246715,-57.1022502024289,-42.8303539287472,-106.455136289441,3.76098682080283,28.1779533355389,-69.645293987568,240.786679389262,220.959803993641,211.704211355798,-52.1278380754588,-67.4475685558841,-44.9249167618586,-72.6043453685206,-77.7566586389103,-53.0652596478558,-30.8447399925221,-28.3565503342065,-75.8341883086141,170.283827324016,180.352160591537,198.363587643546,-84.6446348288023,-109.273372734278,-73.1656855599481,-60.1191493842466,-44.1399972208937,-72.3033460400329,42.0787464373534,117.051963202572,86.0761737703488,216.608656183882,231.831114297221,162.916373636675,-7.0165141401535,-25.7107771168762,-28.0373293052421,34.9875867693536,22.4716275748433,-2.16291146363528,-26.7031990512583,-31.2583586791279,-100.246494189476
,67,115.290086965781,148.381431551526,127.402880260979,-64.3747893626437,-79.0679658747763,-52.6148616196247,21.5969429849238,-29.4935142694053,-15.7189918934105,145.944713272417,110.601406555949,90.4853035892879,140.354685380663,151.600573680492,119.448952237684,-107.488817951291,-77.356299257543,-62.1715478716133,-41.3020740769884,14.9218264416218,-69.7069502208601,67.5746744346661,49.6207497909645,19.6250704275658,138.425778536709,155.871379332069,195.454541736658,-38.9233926566544,-51.1873170384574,-31.6502625351982,-95.7862168416536,-30.4655524466593,-177.365540481414,15.7610103462134,30.7588479007154,-51.4286625476084,171.565407890495,189.59020894362,74.9089596457006,-8.03739187831343,-17.9015829316845,-13.3446984003476,-48.6114612503702,-47.0984461652524,-18.4912793562071,70.8978827727897,77.0514109601986,19.5958642884766,236.631498806044,209.104693213057,183.266918281641,-59.6321363212614,-87.8382491321095,-68.9648987246501,-57.1022502020146,-42.8303539285034,-106.455136289791,3.7609868205891,28.1779533353374,-69.6452939873298,240.786679389375,220.959803993408,211.704211355794,-52.127838075533,-67.4475685559096,-44.9249167616545,-72.6043453684106,-77.7566586387261,-53.0652596480709,-30.8447399921547,-28.3565503344585,-75.8341883085295,170.283827323828,180.352160591439,198.363587643523,-84.6446348289714,-109.273372733993,-73.1656855599608,-60.1191493838642,-44.1399972207087,-72.3033460397646,42.0787464369769,117.051963202717,86.076173770437,216.608656183464,231.831114297418,162.916373637012,-7.01651414043909,-25.7107771173255,-28.0373293052876,34.9875867692522,22.4716275746014,-2.16291146402045,-26.7031990513046,-31.2583586795768,-100.246494189609
,67.5,114.799625138615,149.235851632737,129.100089079467,-64.7687886968592,-79.5306502082676,-53.2607568003141,21.9473828301116,-29.4723300609876,-15.0013507604658,146.493176453442,111.3934503332,90.1232159791925,141.042063713124,152.480708354295,121.3080665568,-107.418204933147,-78.0858460807262,-62.5762842378545,-43.6135551528641,12.5286607543158,-71.427604403882,67.651748734917,49.5260719467233,19.3629122166039,138.761037811252,156.900888849489,197.113793519848,-38.3251813590859,-50.6624029974919,-31.7188666585653,-97.6455934606242,-32.0496379478245,-176.342734393398,15.4413334260566,30.6698860038541,-52.6047220471596,171.913422912405,190.484842487489,77.0027298112091,-9.11177349732861,-19.0683326903691,-13.534981945762,-48.3538183502092,-48.3482951799501,-19.5701476076842,70.8573833208511,76.5653602546067,19.2636509721215,238.610385281348,210.220557535903,184.925645718352,-60.3466020697219,-90.1158802131868,-70.4345560701972,-57.4952089876492,-43.5251111042799,-106.622631441668,4.08851291513975,28.7706756471753,-68.0572849446271,241.324363308413,221.525812867273,212.721482591076,-53.4952093444326,-68.7023740651202,-46.3979413133643,-72.3125295368545,-78.4982266832421,-52.3730162007387,-31.8700312914971,-28.7623783724416,-77.2024862628487,170.382994573239,180.89346857781,199.094873794105,-84.9005119047374,-110.01709871373,-73.5818401529555,-59.7918104177056,-44.4343947664261,-72.4442237325543,39.923345402879,117.116719343169,85.7344029558744,216.595428185592,232.378049829356,162.675981912722,-6.89013253015355,-24.6001229013186,-27.1323596384182,34.8257284680885,22.4044496230981,-2.38243988397653,-27.0801219475516,-31.8467534588672,-101.829799257659
,68,117.05087336721,143.763962122019,118.908578527405,-61.6399516353958,-76.5415945765526,-48.7862016782901,19.9393990012427,-29.9553427732722,-19.5034738034101,143.718780403723,106.559845573682,91.6527807263556,136.639167873674,146.825850414636,109.229063769111,-105.394388266927,-73.6604267276875,-60.4609703527963,-29.0827552031069,27.6831433180364,-60.8788072683878,66.074524731338,49.4543440590073,20.7412721350393,136.605040519895,150.018216963385,186.61292243978,-42.3915075423938,-54.6091545026761,-31.4990537236163,-86.2543886818339,-21.8796107233848,-182.943312148802,17.8283165549828,31.5535683429648,-45.3119506850476,169.243827693698,184.80536229794,63.0695596522646,-3.10272298947712,-12.4268938052301,-12.3259160250682,-49.9422807144633,-40.9064515716595,-13.0602552197847,71.073912163984,79.3763898623824,20.8269090530889,226.379123224599,203.066698855436,174.147093632294,-55.484218122574,-76.2521930375165,-61.722065425256,-54.8627540726043,-39.1367784421418,-106.019840630074,1.80704110130728,25.253434401021,-78.4440350470336,238.508075182267,218.316818090407,206.304447283898,-45.5553620002192,-60.641766954031,-37.6214750636241,-74.0126182073072,-73.5295819228627,-56.7644471516105,-25.4603671525874,-26.0045301740051,-69.2415894857731,169.682116546743,177.457418795345,194.113292194163,-83.3630691759913,-105.943235579916,-70.1890289384037,-61.601295395164,-43.0779760731812,-72.0977928832981,53.5834344154027,116.813396011207,87.2608196467581,216.439027500479,229.386594051809,164.833911765645,-7.59958014097901,-31.5990143381509,-33.4164901448271,36.0649073708723,22.9549593722727,-1.47652075839278,-24.6469466765961,-28.6964311066808,-93.2420926636896
,68.5,126.2675915852,133.893394895678,96.3701090867094,-62.1325364224472,-71.9110855691179,-44.8405126333582,14.1797121910104,-28.5281653031161,-27.965645315991,132.554495156087,96.5252918494784,99.3071143650322,128.396444358684,136.896034953767,89.5352046716384,-122.695691034186,-65.252025816545,-53.5643676797122,-3.21462477974137,54.3268346439545,-39.9868504940719,71.3562291720532,53.8597308545645,23.6585394439931,132.114185017705,139.264242026706,167.615035675269,-48.0617440995729,-57.5904401272019,-29.9167855510709,-64.171853284332,-5.39867609590283,-194.784409784932,18.4167219991641,30.3894146108182,-32.2098002000907,167.20609637039,174.334247473579,40.0487583795648,13.2960160746748,4.51989029362312,-11.1048587436885,-53.815987339472,-24.9245984359295,0.0294087155625675,70.4381101758736,85.3479241240339,26.8384644137132,201.734876439767,190.800707985395,156.600259855148,-50.1928727486957,-48.303766173502,-42.610349599363,-52.5147169875045,-32.1059183395155,-102.131416738845,-1.48828177923997,16.3533228559695,-95.2776892371226,228.549444036595,209.182303813431,194.166807755475,-26.6523822044719,-46.7227275587779,-19.0422601663013,-78.8721546029183,-68.3218879340075,-65.0660679965172,-14.1478252697775,-23.0863396265909,-51.1008939518451,167.882047879422,170.039612653084,187.406719423578,-80.6594218831742,-94.8540958154081,-71.5953769526163,-67.5802722135545,-37.2625909985577,-68.0052267903343,76.842788943803,114.364389587443,93.8643298758398,217.203881869548,220.011262312212,163.762373325937,-10.3248127417746,-44.647389503963,-41.2039142095427,35.7877730488426,22.3846955727722,2.97512555570165,-21.4788994021701,-19.2994001348866,-68.4841043541687
,69,148.373849749392,131.946789483201,78.1185073612924,-61.9855488038243,-69.73677964325,-41.1657151682775,10.8099091255781,-22.3680736430629,-32.8134326157706,123.969346172505,87.8429989407891,116.153802510418,128.418772234377,134.495825944311,84.1998741483226,-146.427281301137,-53.1745172174215,-44.5081714711519,16.8455068585617,70.0943536833811,-22.6232147473452,86.1951700914719,66.5486449048467,38.6844602200536,135.004833794562,144.298771690559,157.477254960356,-45.5738617693892,-49.4071259063203,-25.3202702495737,-41.9605571345951,4.99908054787738,-198.356679702231,19.7113085768951,26.5465426674778,-18.1471404400104,175.097712515575,170.801091744056,55.8576453908868,31.8625109337781,24.0479222765812,-5.82392838722399,-54.8587884899457,-6.95124416284898,15.2906810212216,77.9618992032497,96.919497868354,40.673760393629,187.572027454946,184.934044744421,150.935274636226,-47.2843016919619,-21.3417980104255,-21.3456537900938,-45.9816816659372,-23.3397690621077,-92.3082713821841,3.02412436511713,12.5842992284934,-96.6501464230664,218.247350117857,202.894773906005,189.44989255805,-5.43319960224198,-44.2094112223913,3.78437943876952,-80.3751923677901,-59.3403132697731,-67.418549241379,-4.12873713510862,-21.6239935306971,-25.97974577892,173.568833065458,173.54596184542,189.173166127441,-75.1009100961151,-76.6548171701252,-70.6201806543049,-70.207158456868,-26.8705220373026,-56.8292577262496,94.9105425441571,117.88141810032,109.584831438481,223.661613901237,211.73927624533,155.27397616968,-8.59512685290565,-51.2956494381788,-35.2999004267845,38.101988620318,23.4357093017152,14.8747594332112,-16.1467649892952,-5.43605604698723,-30.6891414281035
,69.5,182.315151675649,141.857553800737,69.9744861823124,-49.4223650670669,-58.9037891940766,-22.150992571233,23.0113391868658,-9.70677365482334,-33.3394353178101,127.615946333845,90.1226699020299,147.41562481105,142.335121553844,143.455783331526,94.621763364913,-148.789516303751,-31.4195225612002,-26.0650409483951,39.8803513763578,89.8974789903318,2.39855491382195,109.728377761778,86.8924451753264,68.034695845593,150.10761362839,168.226162646041,160.668306476632,-32.4693853515596,-26.2282102874874,-8.43352879598842,-7.31919405354665,20.6093441445087,-157.591134701856,32.0402575826829,34.4245487652665,11.7480678683196,198.72751232905,177.974282478309,104.818679501871,58.0217813979666,53.9607276563647,12.9112051672059,-30.1370643312002,23.8933449507381,45.2552413320291,101.39649479061,125.263657937198,66.5529610347335,189.337293242785,191.385961660298,164.29460045048,-31.3800862138833,12.583746244431,13.9010300369841,-23.4829300459573,-5.05145236821045,-68.1163670695018,21.180772792145,27.7228850221723,-81.3971333323075,221.647819865734,206.890321021112,197.930802927194,27.6547480746312,-42.1479965681178,41.1018832778582,-64.2024336607024,-34.7185087854828,-55.7313831901815,20.5464311420183,-6.70468972152412,16.2839084727325,196.195268597908,196.561306609972,206.448807703633,-58.3454857093043,-44.5973875129475,-52.9317042564157,-58.7344685916287,-5.49857118034424,-32.5903323365133,120.292698457525,135.625341720084,138.583699907776,246.648148230895,213.686640594061,156.16906494905,2.54200043047103,-45.8808520424345,-14.9208082690252,49.69117668839,35.0905763365195,40.8086114463617,0.886208911791073,19.9634304295141,20.7765562129148
,70,226.246848619648,173.163007116643,78.2533067280656,-25.99188349321,-33.4809146643856,13.7762141889011,54.7879894351922,20.1271120493911,-15.7685946449196,143.16826513062,114.160824848253,191.097508076109,171.96153257207,165.944419201717,122.68244790052,-133.252960459262,3.1063015036284,10.0765304913084,74.9683992532077,114.708029764882,45.9280705638148,147.910686879653,122.033946824437,108.407385890455,179.669536189334,210.210507269617,184.124420253682,-1.88674833263531,16.1748967545241,25.1648335947543,37.0246437689161,47.0118995587418,-70.888804336495,59.4582664745385,66.9903943576242,58.0239457565772,240.485079037365,203.976708627543,162.577744167683,101.690686263976,104.121075152388,43.1564567668524,29.2044916386753,73.4514871793485,90.5357483776784,145.51498392679,165.894709725238,106.691455835594,209.003974035112,216.520603361609,202.755318758828,2.91148991654973,57.4112011353795,64.0550239676359,13.5908590344366,25.2006427958809,-23.0031940898921,57.437324405998,62.8113390075664,-41.0616688958962,244.120469993638,225.670387935093,224.414001028324,74.5295277684313,-24.9107750587859,93.9101287969734,-29.482680755385,7.15373498916961,-25.1502571454303,64.0903201615265,32.6228431848085,68.1574146596772,231.142799393475,237.881929492329,245.380026579018,-27.863909553284,0.291735059034636,-20.7209947385336,-25.75792576914,30.6936921228694,8.83875520983747,157.446971176148,172.553921810601,179.181266918654,286.353157774041,230.796272819125,173.779784653673,33.6443901795774,-21.2700676020731,21.1178091645393,78.1148813793288,66.3865235216804,78.751782818118,35.714466524581,61.2235399957508,79.7057224554601
,70.5,275.664032253365,218.390904930599,106.708439152896,11.1820214376858,7.16149062469958,60.2703087475275,97.7391724627987,69.2064429983634,27.2302165182391,177.586688890477,154.368534385702,235.913094008764,212.631865262456,200.731250396003,151.938324585496,-100.547317682875,51.8665107748425,59.3169899820041,121.875097195336,146.706716254559,87.3653252971963,200.573715489904,175.001692520294,160.613354322426,222.924346160923,265.685947380761,224.529880443822,47.0307904011975,74.66458792194,72.4417672279128,87.1908784539801,85.0464495843394,24.0266482547449,105.434260458189,117.655165690113,109.545383890098,290.498285320684,245.304000246034,230.57097172459,157.68900629135,168.787636232186,105.814250995784,103.08622308569,130.400309066775,143.595972627867,203.194983064799,212.80359623333,159.815638131587,247.201030141077,256.573684707448,259.967821941839,55.8117015274324,109.874803905807,122.73804051146,63.0776377559919,68.2992990287089,34.8538374819618,109.049866982392,110.664052918106,34.6785329903382,280.309770232954,261.65419685898,265.302745263883,130.206238027304,5.75615480622037,154.111414210844,20.4455326139523,59.2449180072704,23.6914406019259,116.585907086629,89.3096005314892,124.249185082972,272.471287702514,291.612647348492,297.685130160384,16.5908186719771,52.3953351272198,25.9474375280256,27.0897845371155,78.7220593163984,64.352265964259,205.684587854847,220.915632427488,231.173404323314,332.849408365425,262.825470694961,206.10115673091,80.2050794665433,26.0387420836782,74.7791216387955,125.262493947835,113.604441989948,129.954084300799,86.1800017565142,115.246670000643,144.011476424939
,71,320.122504327941,266.849154117619,152.394839930692,60.0687456282903,60.7434325242616,114.579707025783,144.654605160506,119.450509865385,84.6992255332925,229.707229344455,201.332970783739,280.566566209333,256.034200343683,239.348859442305,177.463050510514,-23.1360841907949,105.365440438376,111.531733642731,173.324820222712,188.709941241677,119.164196585331,253.850178713434,231.649923582901,217.899906781164,267.758052109147,324.576301921219,272.957088554238,102.516562336853,136.667942706403,127.257828674135,141.787451023825,132.925166685006,118.75489841124,164.397430659988,176.00238552149,161.559423505804,341.909043682207,290.956413229658,299.009663446339,213.218171988155,231.683577383259,191.347842824529,175.783238327647,188.795340150195,197.342601031514,263.406109810274,267.408716976304,213.201400736532,298.024370171865,302.79028943411,317.773748775586,120.987941657644,161.351832599885,185.958182690847,120.548214957043,118.73642794836,96.3458427260125,166.554594892673,168.994105851936,123.285851095611,325.233432092557,308.512282162653,313.983481243346,187.073528901002,50.4456411062947,214.771823024599,80.5660285412691,114.909834584066,82.7036874934911,175.231129933858,150.561089746918,181.938374154104,316.583797502803,347.248910206843,352.555751871974,68.6765156442261,107.650767323079,86.3322433759777,93.795932670173,132.464257397767,123.05805468562,258.697512460833,273.059848202453,284.993394309684,382.694440160244,307.330531676456,253.452667293118,129.318339928454,85.0195344848244,134.923134611085,185.30436816263,168.791656703132,192.986675856948,143.655275158337,175.376648966269,202.068041284208
,71.5,354.189878787888,316.814253129499,207.376668950638,111.623824143408,119.200893225393,167.116725374281,190.938609153978,165.471759375178,142.468956469976,285.50964474486,252.5468095158,323.755227136098,298.626457822305,274.894465894813,204.752563943149,76.4652902223893,156.916403344991,164.781768173274,225.774994408256,230.194170470308,150.560399585063,300.360873888976,281.978903253656,269.010175104963,307.365415940288,376.149658603936,321.437331861739,154.864560147657,191.56906140257,182.043491627468,192.758468786364,182.993472547978,207.910319643211,225.428199607067,239.866850744771,213.680116581474,387.991589456376,336.106109582651,350.301674731927,265.73340094384,288.120144283547,267.601258027358,244.03674523886,245.744295027851,250.877879370895,317.637485283708,318.540855647387,243.208849196239,350.912323584222,351.66844416734,372.121995457152,188.157448391967,207.099901383569,246.562020606858,176.372144949939,167.927388769749,155.324494300114,223.860540840352,228.839897264918,202.333899310852,370.637360920658,354.92710866277,362.413862151172,242.899806626534,124.055942088488,271.603109276847,142.775546037964,170.603396087342,141.95411766477,235.99883844723,213.718343848298,232.974968970493,343.321619355379,397.165090431268,406.640560880586,119.969674870448,158.994303395724,147.033081996514,161.514657659708,184.545314691848,178.410820439896,308.748722488244,327.607963715031,327.54514125585,427.778738584512,355.486038656317,309.075898993702,177.250944401646,142.490699910929,191.405895089588,245.706328517769,229.244127447138,251.701798866387,200.872997656697,232.200183572478,244.722540551894
,72,383.756367027393,360.819157507151,259.551373336807,158.92135056707,176.102056345293,209.715633660241,233.397269178142,213.59906243146,200.739327217043,336.201234520063,308.461723368848,357.795798319842,334.075304069025,304.347569599192,229.087105204016,160.031786454351,206.237726887283,214.518175037895,274.67845908956,269.878592177402,179.23704194893,342.713997660997,328.642603406463,308.755134238183,340.516878191722,416.262068160134,365.253279183955,204.143824418364,239.611500649226,229.82922469086,234.189516441525,226.973379280599,273.032739409221,277.753027867205,296.296093953946,254.263147264623,425.317695915352,378.311208558792,385.27880607999,313.473215509457,336.69921211729,331.252174016727,297.602187769854,290.748440886964,296.001266121524,362.094197731467,357.689248122206,257.203853078933,396.718773250072,395.029956893283,421.636246875193,251.391367821218,241.912354368645,294.641934496051,220.798623470757,211.124942940522,205.602904386452,275.068772610524,278.592226769797,267.909712771854,409.945514080916,395.906617818355,404.445001620892,288.00675829738,210.42466103439,318.206120456731,198.256392310695,217.955922194518,195.46737616821,286.690203241549,272.102894498184,269.868068240909,351.079816406845,435.750247479746,451.120887923679,168.541602770764,199.34225709785,197.970078185168,218.513856996241,228.442351697224,227.622063685696,353.5133598577,374.967693369192,361.010941912372,460.37644753438,399.00357201618,358.148061964994,220.673855854311,196.908915333182,239.037092373726,299.520470735635,284.158459435248,300.581862293098,252.87902705904,280.159277400101,279.330322078238
,72.5,403.504766343639,392.270647556503,304.852150542222,202.227502538428,225.707915269625,243.047702611872,263.482117972544,252.384806771023,246.894154461659,380.857005624978,352.727011606069,381.713698266973,360.533124559237,325.872600595106,250.162826376997,234.255423809738,252.753424972537,250.485982962325,316.258235251884,308.782724361037,200.642738544926,373.711371721017,367.170041317249,337.398626593087,347.493896201464,445.466116694622,401.311750761722,245.997622951021,277.561666260808,269.488261004296,270.923986976248,263.248802259017,312.161634267633,318.632101991197,335.425568864118,268.017801004868,451.014811526526,409.327260126034,413.57278318333,353.081871436127,370.887234595165,382.109894864123,330.045730035141,321.457712173129,324.533595500164,393.018010091391,386.930031883046,267.126563301041,429.562843464054,425.466329973001,455.620428735302,302.860036026389,257.061547907283,332.411263095988,256.023526843263,244.668009990727,242.105560125211,317.580443904923,314.698851068256,314.210103301924,441.138739906758,427.571590344222,436.683659135418,319.737251117345,280.641672780506,351.6652056373,243.606391806763,254.629856406942,237.848927584288,324.947574961934,316.557299061733,295.807574006422,355.490209571405,460.126927473701,479.109485216218,209.635418295682,232.978665994632,239.523950703795,262.728347317041,261.639406678099,264.510550944169,391.063819836931,408.651263050678,385.983739941382,484.147372529007,433.809449103848,396.361781791613,253.992506408539,243.438107646,279.537516563686,344.443782410823,325.923962543179,342.668009675554,294.588374056635,318.337812264441,305.56595578618
,73,411.127938922094,413.24453822384,344.774540837302,238.000224471894,262.457772953319,265.781565767517,284.750632825219,273.968163619385,273.786159772581,409.213050182218,385.756044591265,399.140309103568,382.466021341002,327.498461482809,295.687021413968,294.045489504242,288.673222921812,278.020471567734,349.575361387301,337.433913706626,240.552471309752,390.416665676509,391.204912333909,356.834137870565,332.056464456712,463.444365857344,429.116171711241,274.645661244555,302.220328350695,298.964914107914,301.974404072603,293.649932138137,342.873033220043,349.519096298151,363.760882311444,267.773743575392,467.320518596442,429.589524963783,435.591392612373,384.614732610342,395.282603949342,409.387320950416,349.824038117976,346.793222525996,347.089660531997,409.53170657285,405.666938936845,264.928058387973,450.100843748039,449.320644968927,474.920832742713,341.759807153311,259.907420989628,365.429105215139,282.059770606434,268.057264166203,269.883286593711,350.893943837027,342.740870273728,340.033124207466,460.673499829246,445.643495737981,460.206564572735,346.122888693429,338.210039188701,376.933683928521,281.752078268074,280.31954914519,268.528046579194,355.264763638374,348.714653665377,314.503742293963,356.642840252638,472.979627733418,495.554218920463,243.21670883881,261.664414041913,270.982410699595,294.74384770968,284.93183889798,289.218138738912,418.965930340149,431.240847353696,398.746980277511,501.668811557005,459.26206953629,425.979555641994,280.575592383707,279.683165869606,312.441864073067,379.230534968211,358.365936256054,374.19083674096,325.182867855031,344.496654226288,320.076968826653
,73.5,416.779044251186,427.077207520086,374.842870195609,267.132477426363,288.315779599756,279.726852648321,301.148083134352,292.396894334893,293.795383777249,423.010191802201,413.434206220606,409.779693637079,399.402063183186,316.19863177387,355.62937085023,325.020372757392,317.141827944988,303.889857557965,376.534949915866,357.397321157036,298.917959424944,403.047176241297,405.512461323009,371.267832379718,320.099698012283,472.416668648532,449.023141306921,296.466155119866,319.289504878627,316.654187873125,322.877706784748,319.481776636431,366.219590980616,369.365522020011,380.776118263072,266.989800523033,475.272035537565,443.713291274624,451.892532157977,407.956574489063,414.710848020607,417.213297690088,366.217890404381,365.035983651022,368.301238446797,421.504376767306,414.133891732209,259.461601892465,460.203850942152,467.289864303755,488.469685520045,372.063992549962,261.045555007184,388.47940215566,299.085810297579,286.236865855263,291.013946930926,374.626936713139,361.329584782219,352.255775589957,470.344578212634,455.189014340359,475.556205011725,368.061317465725,382.585352760205,396.923945814237,310.674825277793,300.00590016168,290.97906138591,378.151561308917,374.22085814657,325.166542676579,352.752827860681,480.450624186716,504.703512408174,272.848991632786,282.541324688477,292.30243827081,313.898884275659,301.014813919617,307.081998167625,438.986212277961,448.43824804439,405.973357050731,509.44684868554,476.658273131889,440.928900081652,304.80387580229,307.29380427161,332.975902947102,404.129704713301,381.145148051492,393.154272293199,346.277878982904,360.438977856857,333.664040715969
,74,420.23765343474,433.281044330449,394.147162865981,291.985477491894,306.929297865554,291.100078056537,313.22474508799,309.644465214295,308.539520743454,430.533770922496,432.716977195429,416.175583224069,409.706475892568,308.650167973828,402.675482730835,337.12564248939,343.202463790302,322.619307122516,397.023396280416,376.74907272047,349.487832319791,414.916937300541,417.852093381228,381.312185374633,311.216897646884,476.960875597123,463.922600719802,313.926188637024,335.409225814119,330.126811832946,338.706145970906,338.472750577435,382.482526425028,380.221977925831,388.98379401689,260.136080336109,477.044601847165,452.147538408076,460.435104163568,424.701266822939,428.390649518531,422.405979621035,381.243822709512,374.666497391841,379.34945375231,429.983346809417,419.265318066632,283.550529761638,462.628574907061,477.965672305296,494.79077510804,394.663996237676,263.614762287624,401.136190406059,310.992785616703,300.444892346897,305.070452933755,391.813817448206,371.440869406959,361.171871508945,478.051874934501,461.570522424317,483.775800974466,382.403104206923,406.107008816921,410.830311948761,329.612338568827,316.58916973033,307.353987692803,392.537354344713,392.3274582041,334.148691858164,371.44735494924,480.968324365052,506.956153618266,296.62271814703,302.251021200595,308.649820643422,326.586967358113,312.354594019725,320.952906944026,452.409777166663,458.359166244385,413.688498820565,512.024249168372,486.056768365401,445.582322172988,323.308308497566,327.444296575462,344.836210260537,419.829701460746,396.532422286369,406.350992879131,362.6837253912,373.134084135297,350.11816570945
,74.5,421.405797626168,442.209589429947,408.766048784529,310.453099172179,318.371126518571,298.930787467939,320.810915818137,320.692159640105,317.867734336081,433.142654889648,442.152645670371,423.767205073335,416.793074430986,303.324431525013,442.418138713214,350.177482199605,361.714911564693,336.81066664379,413.225010113379,387.298999642771,391.113300584086,419.505169021613,428.649455294823,388.204105108956,298.620199307687,480.580961952497,473.245802362351,326.147822067574,347.944652391483,341.926858314376,352.818395387433,354.528215385892,395.080846518723,391.026134296471,398.090988819594,256.035138964716,477.80743558493,456.14956203681,464.799399076119,437.774112328339,438.74097718991,427.688536261022,393.481994938197,383.535271639063,386.374321749031,433.798634864505,422.098595797176,322.324304583021,461.2800053467,483.932963195371,494.087326842999,409.346962223066,276.034474213941,413.085423314995,324.904421698507,311.950576444556,318.411126427859,404.19969176584,381.127851733211,373.445468832667,480.676553641095,463.833414463369,487.461712631649,394.76796516466,414.310803140919,423.373200264798,343.392728920321,328.877865426184,320.548058747661,400.851070125426,404.730635039786,342.121908729469,409.820521836869,477.611418380004,505.999064540308,314.040163147611,322.977455627214,325.68633635605,339.341530450821,322.629515031004,330.417662631458,460.415942555666,461.922760704141,419.220562287614,512.050209273022,490.455845264176,448.481632722377,333.974502833631,342.49427281138,359.278317579269,433.047638908057,409.536719289295,416.648185765087,376.099521259162,382.885877847963,359.661562674697
,75,422.692016306766,447.666444692204,419.621758205684,324.902324308373,327.722696270415,304.068021323954,328.814820338774,331.332964408813,327.846588934189,431.155497605542,448.749446032708,426.60853274905,419.714931848882,300.330750280401,472.334340816949,360.65935849474,372.814681650816,352.036754266815,426.171748849672,390.357096814714,422.777757289479,423.853732574968,434.396306276727,391.955309117482,317.036355075891,481.291105792245,475.224781821374,335.804480760035,357.313705433813,350.778484034048,362.32554859547,370.487278598351,405.254843978353,403.233478668526,405.703345906103,277.656975858029,474.465618350537,457.466355508935,467.624773885592,443.621137039432,446.887457678246,434.375431146016,404.374970530871,393.901960615284,398.410829083324,436.003565165573,422.59934145078,349.903488614586,460.280296465142,488.758738495086,493.326859350974,422.305117878819,309.549593109513,423.679870355414,339.677077139281,325.25079320515,331.246020646865,410.989357771196,390.419982480272,385.029031864307,478.246135630809,463.473784374816,488.224359856699,407.028253552262,421.192702108604,435.086298805981,357.53744717073,337.916223554988,334.973841590527,408.780087360353,414.971735136105,348.720441388967,437.753153249145,476.122748566797,505.345517924129,329.797276215238,337.342099613283,339.312805930249,352.632750822881,336.074199465384,340.151276727775,465.122658826068,464.503368639413,412.492110677065,506.897902078299,490.982465962118,448.985816776451,341.018371281469,354.584817046883,372.346209187571,446.256608858017,418.590212846344,423.387921013837,386.214875995805,388.498061790353,364.38954532923
,75.5,423.965873766044,447.851570886854,422.231974885996,338.629635678464,340.686452693171,311.996520417923,337.502238353877,343.893645994628,341.74804879504,432.039863109151,454.598750090208,427.849540087165,416.408117334528,325.560752122136,482.543546669492,369.229304839984,384.741341686819,365.720253192755,435.017917074997,398.174252803981,439.663047504618,430.425390713394,440.166440602364,392.666672882317,361.016740866134,480.383128296849,473.849570462098,346.886717489247,368.651869679539,359.583473388541,369.505635647035,381.670664848361,411.292338761208,410.026589323794,411.94146348807,313.305933627209,469.45495127817,456.752180653177,464.204575497647,445.085071948734,450.547518767041,439.975765063861,413.694301836264,401.653004176388,404.44646224689,439.571328210483,427.0346413956,379.014359691956,458.105872013141,489.351230317011,488.906285449949,433.785293952377,350.507052295613,427.378883102797,354.894338351125,340.613156501406,342.193223970209,415.006212870975,394.614985897329,392.138315382714,477.096877201073,464.072572201288,486.962625888591,413.528104920927,428.894044153535,442.624697126144,369.596502291476,351.673167195124,348.481450116691,417.393692977707,420.444414762854,341.807200316737,459.969468162594,474.059583221235,504.925873358788,343.369289336677,348.82441628693,352.037392908957,367.159222690148,350.124854654272,351.054545992341,468.928930316961,468.395269559872,392.427578472867,500.844545523909,489.383032012145,446.092879618714,348.5793588567,362.886314421413,378.186121413527,453.35991521085,423.719399326927,427.361426819296,394.907387384631,394.940880796505,373.343341846189
,76,425.54821974283,451.242994739909,419.260072404886,350.130533500973,353.27882842773,320.868449173086,347.870361960994,354.562611043586,352.026067635514,437.14285753926,457.612594086161,433.943118322451,409.016411641884,371.073070791253,479.042853928479,376.704769030792,395.921989208521,374.224719417112,440.418009216607,404.674075842896,443.67518763612,432.641335134198,445.05482770307,388.870810886142,394.109241230753,479.88624298725,469.509765210125,357.929667173845,379.569769861337,372.042871727839,376.078231387307,386.377221705811,416.639954042342,415.492193646407,422.451429177931,344.721745141681,467.771932910357,454.519691719604,458.188311024025,447.154739012276,451.468923921364,443.919725299937,420.53675204409,407.118088950072,405.796258536247,439.460760249904,431.450489942183,405.538558711614,455.721204232,486.46188376898,483.661876509997,441.083644227727,384.097848527712,430.671143097241,373.119896347877,352.12351790155,352.879317481482,418.289286767058,398.165372289794,400.769303606789,476.465947498738,463.471044889991,484.704685757493,417.915938025309,435.790081473042,446.083756910469,381.9327740127,365.886911882175,360.100302789359,423.554416874189,423.300576291159,324.282695816455,481.458636636898,469.631385295855,502.710553982553,354.138687160226,362.12987728246,367.173268107967,382.894221735076,361.822236877351,362.897091009604,472.796676701551,470.818962616318,367.056941802776,497.509006666837,485.870621436015,446.606100226594,352.397570632701,370.43296553556,389.092928993142,453.536414119409,428.20440222559,429.569339679217,403.69068720004,402.659994598918,379.762639861521
,76.5,425.463315319007,455.67634772253,415.005339670319,359.055660558425,364.698404322797,330.081740512961,358.644252816912,366.968828868652,360.523341364193,438.792897279037,461.230550094414,435.96589200981,399.369519866194,406.595362395639,476.149201027888,388.274640639017,403.270596049187,383.111324714085,443.474218765477,404.478932801435,445.946259743596,433.524072131648,446.765595497564,383.013869971443,421.79695859707,478.801923824563,464.104284815971,369.567837880563,388.92401283329,383.491409184458,367.102174859059,390.395483235343,422.362290564933,423.218263486471,431.155562337444,378.14827007749,466.099271694265,452.059358277519,455.427709656098,448.527555144598,453.354234043627,445.764014900436,422.981073048841,413.148055799027,410.239952062329,437.313810139963,433.560149001438,416.350871273509,453.814198236118,482.642871892577,481.0425800885,447.756500707178,411.95376885623,438.93010277088,391.733971253709,362.808120254771,366.05054180076,420.527161038695,404.146012757176,407.111689951217,474.805298376793,460.16035923423,481.104267211093,421.219941235663,439.668770355156,448.405744055201,397.094640397732,374.924332926149,372.6833884245,427.815116233783,426.72141026186,308.079737464847,486.77891152358,467.666590227529,499.536002691336,364.695603690149,372.630683161207,382.622282100412,399.232915231382,375.458764544872,377.797013358694,479.440409487162,470.486750732295,343.348594505424,495.061751412941,482.907782714553,447.984463675796,355.712073643806,379.597532059781,404.496409394015,457.972228520079,430.790512200567,433.84373288799,410.62452006011,407.783769776253,379.490526843505
,77,421.009425898595,450.769336507713,410.982839297181,368.736337588035,376.129656291381,341.700589086736,365.600375610222,380.064387268043,370.296611948546,438.685073122895,460.935042279239,430.749589961973,386.992268877303,434.90604118268,472.685348709536,397.635073343097,413.04367104877,393.317240846312,446.768604277127,408.43430914076,448.361047879921,435.163183830357,445.925253179834,379.269336220451,447.866888122032,475.039257749698,461.67599326194,382.187051692479,398.592980825279,393.30127055764,344.291599028446,393.738624400249,424.530841830112,428.267733065762,433.967116538917,405.120992243705,462.284618284773,449.207122144984,451.414326119578,449.853522235776,454.445239064915,446.545156297859,423.286479681672,417.365830758104,412.738950086677,435.949966099959,436.157068118529,418.148334645485,451.312602291594,478.875528151712,475.716870399467,455.06957100196,429.738170682067,445.914420775486,406.231883951499,375.475599493416,376.79029372504,423.676151210887,406.480861298339,407.668903124541,473.195861106305,458.007209600817,477.560457444365,422.941204417056,442.352543541014,449.219140835447,411.471004082093,385.525484854919,384.578061240589,433.564226070956,429.116159407803,292.20190244676,477.551489046879,466.696998334642,497.765740558582,375.38727762195,380.766178807319,395.585026167579,414.194451324643,388.39991407702,392.354741265748,486.267436123999,471.724870067869,322.30433734224,492.618110050525,479.468980258754,445.788420811636,365.948177493961,387.254962321593,413.466756783239,461.81447399566,430.094028797517,435.974474658003,414.969854662283,412.332778766384,382.530632958536
,77.5,417.738479939808,444.458860760113,406.152715506777,377.580213798698,387.117812078845,353.692312767437,373.505084759313,387.6380256812,381.866099310518,440.048973569253,459.711511166799,430.924851534961,372.155099242736,458.529679370939,469.725521443324,402.774142128992,423.432965901424,401.30542548899,450.583901859011,416.025860466963,454.981702886655,433.462776098443,443.409788796059,380.457516382343,455.944060380495,470.999602985137,460.761610061518,393.48747905459,407.949311800972,403.170118876413,324.488837344087,393.623138360801,426.673431458546,430.549859734394,437.53168190053,417.848415058213,461.70010812798,447.227677940663,445.740051652862,451.873826979822,454.927977014391,448.865727263654,422.338098784291,417.856874030298,412.266726738636,436.099671694793,435.8871220569,421.44810033949,447.788646614084,475.359738555113,467.503963796315,459.688635447168,433.720874946554,447.643332500146,417.728682558467,384.80121989527,384.063726176303,427.760417311605,405.277298429497,409.709911399611,471.456055642472,457.811138788123,475.595087082368,424.640501368654,447.859469009074,448.97344159643,422.005452515351,397.988682290731,393.157745844591,436.391563790548,432.602490611524,276.705479693199,472.60799227567,462.219505148926,493.81097839006,384.375632740346,391.213831184746,409.203127155797,428.911465993197,396.77465685173,402.623805593338,490.340174531961,473.690317168544,321.057286498749,491.534496592247,476.659134258879,445.400366170035,378.526425156794,393.644388209772,417.183955142597,458.503998169963,429.314402380933,436.209752200241,419.259280624521,417.562467980827,388.507087329097
,78,414.407830787609,444.777264631687,400.97878885308,384.643844814841,394.917567645995,361.014215234281,382.614925075966,396.308174824082,391.395597893424,439.75813342018,455.031744925426,434.951826136832,345.6229125796,464.155120002462,464.57855976431,410.592900985069,429.025100393423,406.516278868348,454.997902192385,417.614746426344,460.76046652799,432.174855560813,440.734573234762,365.964506745574,450.54143291619,468.517758303728,457.820604098719,403.182372717049,416.117425040569,411.812601134608,308.661738781734,393.322541860431,430.82349465536,433.259026705457,438.715581177576,422.380061138885,460.991769237681,444.845413823584,442.572709450723,455.12378387829,456.860873733327,452.873307060503,421.586902277643,416.523742464493,415.258672885091,435.895518818136,430.154767936695,422.346187927329,444.356150209529,471.118046793844,465.126540076407,461.834004697609,430.726916531875,449.220228039366,428.007250959677,390.699728911667,392.294462577198,429.930783588158,408.245668583172,412.328096159756,468.014455453497,455.837388124405,471.840699431589,426.661793858739,451.129163939854,449.971794672817,430.401341291953,404.662222420467,400.877239811168,435.735715576205,437.726463463508,288.505076443134,467.407543250073,457.887966219204,488.123951045891,391.965639249666,402.534714365098,421.289515434889,440.470564652563,405.029258401757,412.668123177166,495.420555469254,472.378961924317,346.645949740986,490.039752615343,475.598049218206,446.143129404726,384.021795632767,399.84720388798,423.079508152877,458.753633179033,429.800270482843,439.444161796052,420.247560262382,421.305036268534,387.388880840811
,78.5,407.35642622493,441.48455312671,398.118295541075,391.056849101034,399.9108162005,366.126083660181,388.727375905477,406.23135429012,400.456519133189,432.653710735246,448.347440621189,430.385419227784,313.260729583779,455.144448472502,460.168129065687,419.588671663135,434.00651885905,413.581560129805,461.528299735448,419.47081330878,464.725688110692,431.703466958463,439.446008308566,338.622448751394,447.048633185772,465.667573320949,457.159319948577,411.458685126886,425.246997758758,417.276548531906,295.292939946461,394.184923042804,434.087905633065,435.566662935579,438.624102762376,423.240177422029,458.535739810765,442.263131385747,440.426902689338,461.268562281579,461.466055006567,457.133259126822,422.229782047455,416.311244452358,416.325321904306,434.123507721934,425.709575500903,421.274542728386,441.666609946173,467.321087060063,463.244828118809,464.404104766201,429.139875661276,451.357617020532,434.478914187667,397.380812558694,399.255235589677,433.046165571742,411.622367995919,411.623099937655,464.128434865712,453.047109276246,465.923611948596,427.634448073077,450.751155914898,452.06337887436,437.635126029877,409.213037168548,409.316248826014,436.361125723819,442.191944201641,326.200012618085,460.667736035077,454.243025521293,483.048326722119,399.112331614159,409.938056691041,430.668516730912,450.091006821302,415.81039472065,422.217592089026,503.39996277197,467.312911192776,379.849109785767,485.405815283257,471.695229822178,443.369656797619,388.520342552956,404.421274686897,427.720623549506,463.446840496866,430.947736004799,442.750647543385,420.425897294457,423.585950992627,383.729179988335
,79,404.619391488987,434.579095886212,397.728205361607,397.750196273741,404.359236031233,371.092395332889,395.411135342595,410.065564493395,412.811049892401,429.314107224001,442.194282297739,425.166173135784,289.61705683068,450.272570383829,457.178108789214,423.067213845795,443.051676913533,420.719932479097,471.182208108853,425.116407345013,471.180942958691,428.481304730448,440.73737603567,318.758205924888,442.439770546584,463.212648635576,455.639615627629,418.831740530531,434.267105841247,420.795062092259,310.857103223701,395.798638138068,437.244165923079,437.213123606889,439.670570440871,421.078962689458,457.147442377759,440.252426534963,436.832606845878,468.039721679587,468.158953075948,464.841067750943,425.431080940539,416.719443130918,415.536984054857,432.445992910452,422.070324822396,417.626937403397,439.066617319352,464.182654641736,458.411218827866,465.266805931705,428.854792982166,450.650134046049,439.529577387416,402.761251751235,403.974729813409,436.778833130361,410.559120043562,413.026114374091,459.367029731819,452.47171528289,462.99917939636,430.139324348956,450.886295053216,454.924561832378,443.288851473522,416.740197837415,416.099126086594,439.600316333824,445.96887837989,357.568761609502,457.256650748216,451.182555097963,479.727272344232,406.760737170892,415.465787103054,438.464758022141,460.615268962487,425.363303487424,427.253577988384,512.24038646898,465.642674264789,410.439922081528,481.758676570396,466.895381738057,440.327533057881,394.789014610145,409.33001535337,432.335895501664,463.643914307916,432.274376828233,442.023482009152,421.721496747408,425.58344469196,383.791940036328
,79.5,406.190947089786,434.062877736591,396.053176194956,407.144657284125,410.472028003245,375.439865288307,406.706094355622,411.046747094545,421.234211223051,428.451856574707,441.07904789097,425.712003111586,272.470085157649,447.212406755337,453.240658867061,426.847220458607,450.663412383304,426.608463977738,479.49549393329,428.221517708481,479.23907248275,427.397875024486,441.262545335808,297.962632133576,439.973889177388,462.498627717075,450.634656319853,425.580095842473,443.894884563681,426.90048345726,352.274864587698,396.956776876443,441.543670783797,437.761836158593,440.497096129688,419.109724759396,455.515398775397,438.31494664895,434.756553378272,472.270604845762,474.336674977539,474.748555544932,428.746313394269,417.619722443543,418.435029295129,433.097084945991,418.481451473974,413.382211391518,435.248568155054,461.184539834396,457.237506510634,465.221280939161,429.249812319849,447.959442584357,443.889369812024,406.139971004364,411.415374203554,437.050924870572,411.537343674037,416.041724546474,456.151272086803,451.104925234602,461.694092620956,432.132270118138,453.184330810721,456.596597901794,448.942586123517,422.970847321,421.020388511131,444.361638582426,449.223341744712,387.177015439141,455.544857712682,448.266845924201,475.160643005283,414.967183714998,422.723554257254,444.621712597257,471.11229540142,432.663222154142,432.730459145908,523.733266557206,465.736265050682,437.500335230429,480.281706041095,464.206709856356,439.78147642048,398.697674242197,414.477185413359,438.155867214978,462.602346830318,435.393523585676,443.436908107031,422.218877130038,429.028628664537,378.890421655671
,80,404.560397127018,438.218658595359,394.458420418497,417.014109236563,416.793891498583,379.143575319574,413.281732469386,420.781570782004,426.222837869568,427.20903833796,441.735239614869,424.228683883694,264.087221196568,442.668211557268,447.86381728448,433.167660696975,456.03609724416,435.013415304947,484.703757836891,428.920005821156,486.395052831776,426.619533281179,442.941811649463,274.926673586428,439.765371107597,462.11948393796,448.029927910203,433.788856567199,454.889298860068,433.997177905408,385.558775944378,397.69464066018,443.159592151904,435.970636800855,440.231280257286,418.681480392499,455.193458410282,434.274770078028,434.185650963984,478.764106740158,481.800015170845,480.404287486358,431.286794425037,418.575766430416,419.875768851153,431.0509609394,418.50426427804,409.860289661287,431.440822368801,457.411658449258,458.723654641572,465.996643322211,430.404721861066,449.119811045535,448.477573660703,411.102358003895,421.625477201779,437.148412106317,416.446252465731,418.212980465614,454.37589439621,448.314514556833,456.985902339334,432.394452704049,454.711545050699,458.450075001654,455.926721481768,428.866923810821,426.603297113948,449.627553509019,449.824908862861,416.504993569689,453.251275998512,446.019278909033,471.371741670433,424.068834323394,429.201720804043,452.588667463288,479.2874096279,440.862632909979,442.136080603468,540.239796305379,462.58653523434,453.986254290274,478.180151139861,461.287753275029,437.800303111617,401.758377419688,420.263949192044,447.953460721661,464.504405700359,440.342999079001,445.235560215596,422.270163240034,432.751849964327,372.678837341587
,80.5,404.173305977015,434.818141859263,394.202821221864,425.855230430778,422.970306339422,386.076304158922,417.910648827886,429.933703128536,433.972133255491,427.016886413743,445.182814729484,420.305769687891,285.546238484859,438.675443872467,442.494301430177,438.376456026364,464.510525606591,444.933841505375,490.46177696616,431.318410515064,491.868587544533,422.604131615629,443.986199602847,286.908751215911,437.251581911162,458.986679694299,447.356292114723,443.758644826549,465.869569789435,441.60819956094,410.080032843161,399.481101737074,443.451073283605,435.000639003982,439.550718514937,418.970723231741,455.029626804214,430.509336602658,432.159105330237,484.090304151825,488.929163655617,484.534300521168,433.595981161699,419.726037765444,418.963958896151,426.81576046921,422.139079756594,407.362886288267,429.307315234737,454.239925645191,456.059583612207,466.573194106417,434.490126564153,451.827504175698,453.114206525812,417.300139715133,429.368010086982,439.105580700959,418.068290703283,421.779822537914,452.963120116161,446.830982014677,454.895892898724,434.036443216862,456.01834471188,460.595274240714,463.609792201652,436.365602950025,433.963322021172,453.533723399959,449.026011803466,429.247616746816,453.026103863162,444.044365088418,468.764649590388,433.193072103834,434.976200461798,461.817338896206,488.270980613544,448.646254626647,450.453338070835,559.014176053034,462.381824808102,457.800795652879,476.382802584093,456.088347062556,435.215527081387,408.59747319912,426.969494182254,459.383712939759,464.424496802925,443.087486191551,442.744738919238,424.36326344555,434.621673155573,360.304141160538
,81,407.22063691502,430.960794266669,391.403410095121,436.453127795114,434.558886898497,396.689061589796,427.582466730085,434.586650082338,442.245679576788,429.043131132845,448.060232485968,417.698707805495,328.083416843275,437.537225229603,437.788471738015,446.063529721232,472.422987433393,453.196347686644,495.067149603253,433.730795364755,494.364452368469,419.689414008791,443.449289781297,327.972087624391,433.790971583267,455.446724121623,445.490596244631,454.653611834729,477.825530215674,452.171376657136,434.275296826407,402.366227916091,444.256768730922,435.71815341531,438.661687824366,421.601822450876,451.662838505145,427.851189396981,429.359001187313,484.265532952227,492.824182504588,489.365062392762,432.900804091738,421.851413286624,420.671606430673,428.929373213234,425.199155782524,408.763249949089,424.794795527829,452.055773485717,451.487983994896,466.181148851422,439.269028163824,452.146232531195,459.076625942831,425.511471972354,438.543654913815,441.880004108885,419.34195727034,426.97422816435,451.599983392379,445.151478436123,455.230016245417,435.976382589133,459.258003084973,462.415856319757,470.256343293634,443.874016472852,439.990376112269,456.103936056738,448.295206291106,426.976683528691,452.648380397145,441.88698096923,467.703935885652,440.634198131972,444.282186386687,469.954181540309,498.37187583081,454.327794184674,457.922336315793,579.444555755164,466.007133406723,460.410478724101,476.802460094142,453.748751395985,433.073104357239,418.677560932895,433.91782711168,468.1896598725,462.140923552221,441.982992244275,441.103099510891,425.741011120362,436.81991300139,338.760425829412
,81.5,405.616098139169,430.178535704478,386.415671689137,446.48562657472,449.949986344345,406.947303149845,436.835942149798,444.821587607077,448.183994613783,430.512072076081,447.686302001893,416.402681345406,363.012640045589,433.826916489872,432.275634860937,455.294765845189,474.80735109382,460.096078703484,494.645033868264,434.07393995508,494.067882608712,418.959370165902,439.268094028885,360.01511185049,431.276918198635,452.979568974193,444.925234709561,466.156649858038,491.084557114137,466.433887243757,444.318505612926,403.691966988716,442.17194401159,434.862660323456,437.275608251864,424.46344891787,448.581009580824,423.877152316722,427.49270198337,483.160604451308,493.428760315195,488.282846675573,430.616345977933,424.245156786752,424.155628549639,431.722393121605,426.952215702487,410.852641818542,419.205449808836,449.697498304733,448.636949324147,466.835921104142,442.762143388356,452.184852709842,465.259301968459,434.685770475121,448.328168739876,444.730187084027,424.967659056147,433.178110385017,448.880416758965,441.086143465928,451.067986065641,437.19954224019,461.791226970932,464.056387456939,477.093475868541,450.936871656988,445.164738967279,456.484991414016,448.615657300817,426.665969843231,450.23559311295,438.891422195168,464.768639270562,448.401004108965,454.753689705673,478.062130378435,505.934432901131,457.819304866128,466.741908413745,604.394259659907,467.453317180365,463.169244128828,475.440548338329,451.72427959861,430.128404594575,426.74462441157,441.671426350943,474.714494351125,461.591223914635,439.298636055013,440.458728853166,427.226284487618,440.220809054253,319.616100591731
,82,399.654312938997,424.665245748964,382.590201716497,454.066656758327,464.196360654722,416.894578484541,443.889900855717,458.620514129706,456.213273770998,431.19855273629,445.32120105788,415.488569330946,393.221141141791,429.610115218126,426.300402457388,462.554876231324,478.515813252465,468.339167362803,492.903886408978,435.302480057324,491.571370394845,417.802784054682,437.447100429918,393.262851006762,426.902881548489,449.000488985808,445.366875702626,479.048618289683,503.962554338884,478.375271860373,438.529140770307,405.563103943593,439.281510815128,433.924295953839,437.575167560613,428.652011359819,445.913821759492,419.375288198057,424.959580107714,483.431720272304,495.281716015908,483.686806388309,430.430080119116,425.862527381793,425.98434735145,428.617770683684,427.878490565904,412.832979553069,417.218488034696,447.980902069005,444.762522933178,468.177396307222,447.749136312077,454.247880903076,473.797269595203,441.959898604341,454.814088729254,448.953830511051,428.40831519194,439.083842715336,446.197532224244,436.430890997957,446.297436439727,440.343405666777,462.100233730795,465.916988647907,484.118358568843,456.839729228178,449.811103259056,453.523873699938,449.622653102862,426.79846798672,447.330988687412,435.35553342703,460.518627295047,456.446729522122,463.296778464122,487.489823468037,513.717623718196,464.929554192733,475.250510037449,635.143619773365,465.774500247679,464.982418505896,471.643284005894,448.465681241573,427.528650531447,431.208146423191,449.906593933667,481.370977474338,461.626139617725,435.332602364543,439.000956209702,430.798631942707,440.839029256846,308.620101832719
,82.5,396.24749155878,417.013214210107,379.055274551834,460.875630388969,475.685578939033,427.077685653936,455.73170837613,466.171189714516,466.808258885665,432.454891920495,441.96315319132,415.793688681546,418.99496616839,427.685716853215,423.624194311861,470.299634393591,483.687499615388,474.489131176172,491.631004374134,436.527671130415,485.468477761894,418.986307817328,437.228322461714,430.313127193513,420.977517640615,444.459597300433,442.699955299891,489.065863581391,515.182682350679,486.759516975751,437.558725153082,410.129352379879,439.477002152248,436.32042740148,440.326788259216,433.547530804935,441.93598788733,417.184758550653,419.74132294012,482.245163180619,496.236156256296,481.793721695621,432.084130951858,429.669016085379,428.03844008452,428.007200432991,428.710077093693,416.003027750813,415.52367957679,448.07702683222,439.647665525148,469.088219140131,452.454896646057,455.436508620252,481.269333163252,448.333870139891,462.065782122452,452.889058695235,429.657151754331,443.939251558906,442.999332878959,432.131334730501,446.188604087171,444.82288095018,461.719169276522,468.394665603513,490.347346687739,460.524554014461,453.157054998738,451.667613604894,451.784397103475,426.396839198533,443.654237525988,432.110731978256,459.622704106988,462.590074892151,472.525241943049,495.705237765078,522.515175644121,471.579801799927,481.875932857427,671.620271649895,466.086397614509,468.684487091182,470.427782985072,445.99627949052,426.402110160973,436.445729604959,457.17047845854,487.293901945053,461.940949568931,431.417369221299,438.577860974961,433.719418680277,440.201135057768,299.196121384892
,83,391.402754717904,414.180335489809,375.265142801192,468.513097076363,485.813746929617,436.288153874753,468.801387869472,472.21321309427,475.163221269691,434.036072862668,437.793872003273,410.385133477665,429.701261635446,426.830612375537,423.041239467765,477.014734216182,485.418426529156,477.902718179056,489.865205399432,437.433359432221,479.749364897492,424.365773532669,436.884241007579,448.516327878578,416.945163447037,442.578826665036,439.684973130395,494.945726369097,524.823347712381,493.079998431113,443.205292384615,415.121980778712,439.764428563508,440.455186994371,444.946932798681,437.71046323467,439.533542331379,415.924321724277,415.581087898792,483.302367734627,496.262746024086,479.537800074815,434.120528565298,433.929431674274,432.191411214842,431.345483239386,429.011946427652,418.866461269104,412.503823093571,449.242970475667,435.961596412807,472.135411035562,454.401928058689,456.711627360733,487.629033080243,454.903641780925,471.383901451337,455.938591196995,432.628485222048,449.494269090821,439.50648223373,428.18645748464,443.811906024341,448.818784965143,462.736585252267,472.192528859093,496.396834993134,465.152428773997,456.186617509103,453.355916073421,456.531319980315,428.133454097283,439.905952578278,430.186223234963,459.901681873113,469.511261893157,480.480399582817,503.039329791662,528.834951427976,475.694478446199,487.134106720799,711.003278793392,463.920887748608,471.597281728091,469.45996722773,443.8587516694,426.010207638396,441.531670364321,463.978102098282,491.337023743923,461.314782152558,429.461344392628,440.351262007261,436.127959974193,442.174820292999,313.541824561874
,83.5,383.891430124828,411.229052214944,374.962657340882,475.696064589975,491.758492986051,440.836261083601,475.54175642161,481.046406697037,482.297335673297,435.930556258395,435.729620397491,407.259206758519,429.108685665551,425.429737925881,420.810186169305,479.770387058335,488.667982562514,482.30529357034,489.790918274504,437.888199028636,478.790589091627,431.492886128608,440.067899165396,452.315828014335,416.58642106974,441.861677069463,437.602238411665,500.202112320211,531.834930908187,497.182166533024,446.75745439938,417.914840703809,439.715954932185,443.126428669106,447.379954591426,441.69000599542,440.964625825315,415.417354994979,413.83001196054,487.151041370993,498.637464895109,477.356284398425,438.008677384808,435.882826934727,437.362932226374,428.958226156832,427.430065606835,419.870047725516,413.568453343969,450.724541712722,435.988033001927,478.021267797186,457.291095703007,461.209779293276,495.545396219045,459.6338021469,481.446925861052,458.688332163397,435.567884980207,454.803938203847,438.322585400895,427.401706775277,441.453971716345,453.280244200912,465.663713480452,477.662408163243,503.467771349077,471.893658558608,461.053435270693,456.239088809421,463.833360303474,429.780061812835,438.200459120511,430.896534629649,460.355265814332,481.177637874821,488.090155014517,512.224672180735,534.829322149358,481.539837136906,493.199284070074,745.906594252598,460.621903287035,470.660609068039,468.915125492726,442.941125949314,429.021259813051,444.309035528323,468.883164620594,495.480208524549,463.870576044234,431.417948903241,441.919082070241,440.191723499753,443.628070180785,353.150858814079
,84,379.204700075146,408.975481961815,375.176398624104,482.86210039798,494.302483461259,445.279053982771,480.68388689547,488.022966472716,490.781525093107,438.572779753028,439.292396480379,405.40745708295,431.405269611564,426.665559035691,421.377335494649,484.735806046941,494.969502870586,489.098420574775,492.096771803848,440.321095638389,478.93187578518,439.40227778057,449.035778553641,463.135338069524,417.823832907301,440.733829686606,436.724255683728,505.595102938012,540.246598660816,501.351815096694,450.400286914056,422.256318849154,445.932074656245,448.267363861302,453.761705768001,447.062664209383,443.077446147541,418.182363445318,413.0516505205,490.92106078133,502.663366514384,479.069017342763,443.178597455888,440.669005832853,442.437474654871,428.77234050948,429.318794796697,423.465705757784,417.760930973369,454.333981407471,438.393572760917,485.217602983971,461.492738460101,468.856067082772,503.686421122606,464.986199013973,493.740736689881,463.752192988341,438.151726389684,459.827375473088,440.772727912604,431.169735768493,445.834982347776,458.345810806421,471.651303491718,483.66493242666,514.24617284848,479.538681297339,471.041723544842,463.52378110683,474.310538429231,434.254015972117,440.597906227134,433.898624886597,465.4400806113,493.636389785908,498.613371184041,522.74524364769,546.584896804677,492.106545395537,503.68046447753,776.703740671807,460.047065119183,472.526714613222,472.206197726918,444.644097296914,436.649447556753,449.53880663686,470.327035267807,501.043289005021,467.805709342162,437.733119355698,446.882038188658,445.822274100949,447.084085544825,390.569735658464
,84.5,378.854770118891,413.657337678928,376.462953108056,490.580623203708,497.812056018592,451.487428712072,489.25140607558,494.956055574334,501.923113780223,444.067054800499,444.78328958199,392.23069552567,437.722765914547,432.349151899705,426.345089797251,492.942416009159,499.596195031569,493.69517708389,496.908876530117,442.937455611515,481.054388912577,451.628617629354,461.709029145495,477.791000965506,421.874012015557,443.870060098478,438.203259642453,509.725673087025,549.931984515269,505.684338005267,460.681660119638,430.201563392985,456.931667690917,461.474015741662,466.346591751917,458.085963903725,448.077881735236,424.56214404482,414.926138021486,494.043094569939,503.833244839386,479.649924634665,450.372442917846,451.474299129611,450.161045348016,439.483200495199,437.227356762262,431.730941204046,422.486681466054,460.85660339483,443.117995871045,493.441164973754,467.034454587083,477.552043270703,511.271084960224,473.515231981167,507.056257618575,473.389559075459,448.096629988721,470.16807636462,446.635084070754,440.336909373026,453.832299966405,465.649933372629,480.714308360301,494.644077532763,528.463353125164,492.544538113516,485.795738512534,480.500008537147,490.105499951841,445.934716477821,448.020251232132,441.904723640464,477.705615763183,505.203511022433,508.980896636896,534.619071228635,560.370534549605,502.823263752464,516.887966520601,812.622257883897,465.423170804,479.195218377181,480.814146675861,451.279694850092,448.527817354055,459.777604979713,474.583547278102,510.056613709874,476.17323493609,449.227033001129,457.052566846278,455.707354271992,457.928339553905,429.473843409125
,85,379.517172864887,419.586192213475,381.562370147312,499.915876524988,504.833897312111,457.912293115709,495.373256588567,504.061854282336,510.218511139936,448.866348237944,452.953286213199,367.269194304961,446.640012309262,441.454067945595,433.521519346935,500.829094558461,507.227690022009,500.613576971174,505.425314041807,447.020165958467,487.669408262958,467.327102241669,479.502289583311,492.99150269185,431.38231292613,451.788713871215,445.048774468954,516.425207696853,559.68751346178,512.477097014767,473.52105310565,438.073358930619,469.721723160981,479.732931612259,481.860982622735,471.628389209492,458.45533179433,436.011266865213,424.987740565814,496.654776595911,503.843739603644,478.15436466947,460.731398538998,464.566431716995,463.131646237921,452.991833059129,447.90415884212,442.559735937641,431.549869980369,471.410426304904,454.346759301184,504.482675211199,475.020678690716,489.115005778071,521.459986469663,482.008384807362,519.03615988816,488.272646957882,462.857933266765,485.552917095981,460.036275203746,457.650765754219,466.97711838734,476.222180566734,490.130423584056,508.85673344242,545.121395374008,509.429519468774,503.329361806637,503.49210678865,512.278045961491,463.788143269135,463.105235456361,458.375320507645,495.372636292262,519.435432043224,518.87660344483,546.588894120057,573.143861927365,513.478171674169,529.983432800661,862.154048549361,474.777567717741,488.176787679798,494.812944565578,465.342222580231,465.143668954709,468.574597775399,481.38825140712,519.709341000968,491.493927522479,463.722468454784,469.553172919733,470.774120766328,473.913003769163,472.472297328862
,85.5,383.835819131597,428.815555724672,392.289812408906,509.995986819193,514.702550487617,466.408715949266,499.054615758355,515.414872967887,517.437377735788,455.213659366027,465.658172264987,348.429867736406,460.033373376988,454.748771645332,446.744788471386,511.103659440796,518.236506004241,513.104186961596,515.689030868964,455.407266823599,497.17198732857,483.529472560074,502.674927183768,512.034622464732,447.331781364307,464.587300880438,459.078447019561,526.480156572143,571.650663245956,523.074449572348,485.434272111221,447.7822440041,487.398125186986,498.813540015128,501.686995290715,489.137563798208,475.087660017974,454.482783655117,443.728344409388,498.423122842534,506.238266783779,478.025008086648,474.197886188215,480.989853215707,478.71688779677,465.718713623121,460.654941853231,453.654286254667,448.096815470349,490.544067726823,475.785986737297,517.642581326729,485.35086503939,503.462548584223,532.394723792186,489.303523701104,531.722488061385,508.358588110481,480.479974378879,500.906826004335,484.940859058966,485.349429661888,492.565187817002,487.79551983856,501.199474298515,524.095611229293,563.786185349773,525.483435052523,523.244764520585,530.889206043852,540.353467232349,487.121609426863,487.428734714242,483.794310973378,524.452597863702,535.338849099876,531.735097174204,559.150402333304,590.803252237693,526.799441052655,547.472153985775,927.356100156443,488.323924238146,503.525973503831,519.632847532198,491.978112247327,490.177506671494,478.98672269733,489.221113221236,531.36744959953,511.711454846953,480.139753253279,484.83874743843,491.62034108679,493.568257531927,507.487073683315
,86,397.351667402163,451.330143226009,410.585916151101,521.463808575223,527.776425800717,479.768460698791,507.049225831612,529.264574634198,526.767804306858,467.965059447896,480.371844084567,340.994625117481,483.00889988404,476.895461008934,470.187833323156,525.987074769002,529.163020834383,527.109887755985,529.299212492329,471.526818640865,511.277138015278,501.08938860914,527.649994995305,534.311057974684,470.637144049379,488.042013245206,483.37045073724,540.194557402008,588.008404063334,536.932148294422,502.798768088968,464.838040017607,510.855445183506,522.670825301067,529.156982787559,512.575312799414,501.968644854009,482.678716439515,472.27966669029,504.574535603105,513.000937607191,481.192421325344,491.983998226161,503.44832832723,496.55890507133,484.206976918391,479.30511161814,469.531105241163,475.239684816555,523.029552351674,508.20279210245,532.387258696681,498.463646351825,520.306676314188,542.927685844066,499.161776909802,545.12420091758,530.503554183265,502.523709525034,520.022682120828,522.766611196573,524.901866037633,534.028777977033,503.370938336073,514.339754068606,543.429548805394,586.326070500278,544.209983893502,544.345546929466,563.985422198862,575.275068383018,520.430589327258,526.223302046626,521.807895310454,569.44504623327,550.381671970312,545.939829818322,574.847501637415,611.735082921222,543.26567455755,568.184379650561,1029.8488871039,506.326100599118,525.84943450988,561.767057709116,533.853667680368,527.400153822596,495.540087344994,504.84650329794,548.726785262274,533.252851828918,498.711916163866,504.815203177901,517.231018696901,519.302237738996,535.362593922285
,86.5,420.06916493096,486.878989526062,441.320189700534,540.159121540536,546.740203468821,497.614251642564,523.040086147475,550.007251823765,543.095606114573,479.29544878574,492.353592783448,341.667055605272,519.277747364345,511.78065321819,506.847828105848,545.65231524706,547.748307008979,546.809714301354,556.412065363715,512.94513206167,543.532924530304,519.216915319519,550.700486935453,555.297097105274,507.926843964921,526.46805686056,522.085547869186,565.951994066876,613.087922765284,561.051446561896,525.879781503171,488.342875094046,536.367964023292,549.136789326902,557.811004302923,540.113337655121,545.286665115324,523.688393100106,515.040322116749,527.880235633527,533.050484108,495.42684875691,514.016716125653,526.627806692028,518.826880387265,504.302080829403,498.505610926845,490.38416963361,518.501738339997,572.640224489882,555.862716679427,550.715210240739,517.226666201696,539.430468328279,559.396863668512,513.13936711243,561.823355395941,552.096064177901,523.872685338604,540.004638842523,578.04327422838,582.542494360617,594.684521029591,526.983255256416,530.459679500754,566.880917073417,609.941519475441,567.183880500124,565.927213116365,600.902608001513,612.726984887959,559.920301156343,585.719278977677,578.216881877469,634.951712788003,571.212817163236,563.678919387264,596.467600757487,636.30803302736,567.132685303153,593.153866025144,1153.48628754031,522.524637573131,547.35129500018,626.946607166089,595.845890225744,581.513039815995,518.89416913076,532.474850920964,575.283035190687,558.187862166023,517.727223926962,525.122773065044,542.608997754025,545.235664853936,567.330786002851
,87,446.053469894771,533.12320688227,485.896651388804,582.705858070387,588.862555030798,535.141139028175,562.65592036323,596.841947141214,587.902534651708,491.227318256014,508.651604118123,366.333524543829,571.122738632382,561.457556135023,560.684729495134,587.094292861223,590.428358729286,591.372551039425,625.122385620591,610.449274643395,628.825542062429,538.173607059554,572.112241717116,577.405059926743,563.789376202111,581.414176778883,579.37241445662,626.4414417339,673.806152594917,622.410384207936,556.129577027733,523.07106202626,571.411921621126,578.783751181855,589.379843329985,574.189477531808,608.53203915959,584.345536475046,577.789546146154,599.675483170073,603.349753552347,549.699975572,546.150081835178,557.615548901963,552.825675670807,523.291275128748,517.163561646135,510.761258601206,583.92651457787,645.797355638539,628.634655937273,579.168184737949,543.760237157464,568.405597873862,596.959331583101,546.772279076772,604.163526786873,579.483838303494,545.626774646782,560.313129472444,657.860983919619,665.898261376716,682.185141845669,568.580758259926,562.211356476248,599.517367213891,651.673467215104,606.073004679791,609.577834314815,651.253168953962,661.348185760308,609.024730254501,673.534586268788,660.660988466155,729.106893608432,617.687265876768,605.119001324192,638.912360212511,694.410984466718,622.995130456714,650.40693100554,1255.02388838276,541.949070624672,573.600385977444,725.485391375794,685.821505081278,671.215325151381,574.189864792924,589.561051320131,634.764140402208,590.501584928391,543.255367206149,551.215074816085,572.881112755093,574.710080325588,604.101272807543
,87.5,481.202129232801,593.031964134044,540.064238759689,692.656989519968,697.028065976252,637.229785464017,662.625179850051,703.830920143296,701.458539527265,514.812119753515,532.424245324225,425.844874108166,638.650924308938,626.546051858272,629.056234877519,705.216711310808,706.261536446053,715.024447914653,733.762267298135,754.808871826008,764.185464117704,565.60029680268,599.322488607028,606.060205721953,634.851623228063,652.994033642558,656.57818636078,754.987128479844,805.698389131325,753.739227261576,601.589963982,579.009088175787,623.263041665402,621.170422851777,633.616059496331,621.491441370954,690.637145779898,668.076222544104,661.774502464134,715.889292248655,721.809208746515,643.048401651916,595.05658031595,604.28917353109,604.493140531782,552.142475729843,544.6176105807,539.296733844919,670.649141484541,744.445911325613,727.672856632161,622.007264453704,583.503732932169,611.03675423445,711.418621460778,654.859525151275,730.575446008781,618.122998795281,578.72355965988,589.00986321769,762.11253101944,773.289040055087,797.39435747006,632.838299629341,620.727563379878,649.916063413461,777.571966188816,723.14115543637,736.029194861878,724.088995858349,730.369058599301,678.336669020505,783.436348728224,766.709767193033,847.542080276297,730.324471109008,706.992629919783,744.073015563916,821.45205283082,745.079755941387,775.670390734762,1324.2823238721,571.2553658545,605.90587752488,846.726033277223,797.626440537797,793.169981601495,713.731213201303,723.159460448268,772.182539079357,631.651883347155,581.277948129885,592.661549210149,616.41720358978,617.604573826189,653.748785648749
,88,547.797755736089,677.423398948671,616.78485541886,903.608097047975,908.602109953616,833.338610452446,862.550469054834,913.673640573437,927.107489943831,556.361413674138,569.441435473014,510.07622363823,735.518758505154,724.791472888957,727.30803149016,931.789011121284,938.949948588298,951.799848252303,868.199144547334,926.428376563232,929.699628444643,619.105928391923,646.739845872384,655.20214462113,736.529271754424,761.185726621851,776.196646141171,990.543138757668,1052.23310359385,994.269630548283,674.995213362666,673.826575802815,703.85102860776,695.668160494555,702.66749348714,690.864051540697,816.594808219285,798.379396619085,790.973408859442,855.068446634307,863.581659824867,758.846188340166,679.340319732754,680.968823110012,690.672392836946,610.24819167235,596.254374960483,590.406109787627,787.568349804984,886.197015208968,870.486040568856,694.174625408806,653.764198100419,678.551397617729,930.026507169956,858.052014722418,962.127213388925,682.288527846943,638.113577398655,640.045125729372,900.516057754207,916.434688597783,956.558737275977,736.714816924828,716.171073269487,734.55171745296,1007.48985552466,943.005046724356,958.954875303104,829.081369848285,825.001987491254,771.796776190321,914.242614911329,902.486073399549,992.504569290006,916.624366026417,881.057614420281,927.014434318516,1040.07499280152,958.95701042125,994.104400820782,1350.94598120198,620.519016804186,647.951310188396,978.827360410813,926.468366337919,936.546358675349,986.585920512329,993.349542451544,1059.90048276974,699.290778059688,648.598461748365,664.372420063915,684.768446386154,684.786938349001,725.063277804554
,88.5,699.824850784286,836.384049110272,775.021556764674,1201.26636298673,1209.37150682715,1109.08694869234,1174.48202474683,1241.222475203,1277.97870095531,661.288888718341,669.635665348215,637.368798041879,926.667288803003,928.305044822078,929.623831645142,1234.00563709711,1256.42050909528,1269.53444610469,1046.56037794328,1135.11166016516,1140.68799694388,757.832790320801,768.989740728543,765.828977477371,931.059610645611,975.18204870661,1012.24620538099,1340.19489970861,1426.53797246458,1358.16003552231,827.48727845357,868.767538987752,877.389578812369,865.769707855597,852.750416881155,828.658004834152,1045.30680035844,1036.85172499991,1031.72065701738,1033.30800939319,1044.14517820385,912.989025621374,852.540574131419,839.095951956706,869.762264283492,763.017887945209,724.265532584416,695.817869092716,975.473016064748,1124.68557999862,1112.72708727644,840.641094124359,791.385803607219,811.129273820492,1257.50035541372,1161.70371564149,1304.58244985986,837.069703585324,776.251441629514,750.870250219012,1114.86460633091,1138.30233048955,1208.93831710254,931.107723707477,896.629332094479,906.000568853929,1313.49671835942,1235.29905305579,1254.14254864563,1023.83989179137,993.311093565437,922.301384695438,1094.18789433716,1107.63344366939,1205.15425803071,1169.28951001593,1123.21962318643,1176.4602961851,1376.70015019281,1289.61309674792,1331.60359366673,1295.06158218037,747.951823723844,748.351288116732,1142.09953152922,1102.68830447487,1125.62165551666,1367.65594655894,1377.07654525192,1475.79362832463,869.422690197973,821.506058366002,846.930710514995,827.677745045153,822.568437370253,858.092243856957
,89,1078.01830353978,1200.61704673008,1136.40447500853,1561.65126999438,1572.44691140152,1440.6826988982,1549.17596839674,1636.55875104254,1694.39761485454,989.562797621117,992.107985192909,976.320916936118,1329.64960143493,1343.82080771775,1344.68545317269,1561.44443685033,1598.37100057099,1614.84321193663,1299.82785268755,1371.37293029044,1417.57761275215,1093.78225507288,1095.19515871545,1065.08929880705,1320.11120326916,1397.47100909269,1446.22871015961,1737.11178291035,1861.61354678812,1775.83194507503,1145.54709831377,1213.8515458076,1218.14098455765,1229.83399245978,1197.19883012869,1146.09602564242,1451.30710778151,1444.58391627583,1445.01272704926,1269.08276801346,1283.58500403783,1133.23741998135,1200.64429793773,1172.69818895013,1223.80287656304,1127.67181191781,1057.65545795622,981.56486208418,1291.67563677391,1513.59821450588,1501.74822489779,1132.64942818304,1062.62671636187,1084.83843661815,1677.75256874347,1551.89191527572,1738.3479468783,1187.2636287725,1099.41268919322,1036.4470566632,1435.67609145246,1455.95303794212,1570.06946711995,1278.73060628677,1242.42005456626,1253.76985448447,1664.05092155676,1568.69985006191,1590.05880246539,1379.65843130652,1330.36986386253,1222.57673577541,1357.10496939051,1400.63242223944,1503.98025928012,1475.10950162207,1420.32624176508,1477.41854222172,1786.76705613638,1687.9241219762,1739.63663420295,1202.15620855467,1099.95293231282,1057.42988861756,1371.99882189009,1353.90110554125,1364.88232541269,1780.44027831706,1794.12613243727,1921.45370673204,1246.44631136422,1189.00065196815,1227.85162819572,1136.90058429367,1131.58247515035,1162.20072197913
,89.5,1627.64680949989,1697.9935148811,1629.22576848967,1926.89804742844,1941.93406746258,1774.59094970724,1890.74561735958,1999.24689208781,2066.27523593162,1506.61537954218,1507.39455156124,1528.30964562742,1847.89842014656,1864.88921215238,1866.2745055065,1856.07226332083,1909.73672960904,1926.98218831738,1596.25682521764,1577.03625233276,1704.70269105253,1568.93418942742,1587.06597743259,1537.95334470201,1809.61753408677,1921.85343791421,1961.21968183604,2076.67257701942,2240.74191920396,2134.26574635825,1592.7048532167,1643.0649544663,1674.72213291744,1701.43711031228,1666.72655153958,1593.74186419186,1933.6324366777,1908.37710655298,1915.04515930745,1543.18015648007,1561.85019890205,1417.08434371519,1653.47121810001,1619.11523819062,1673.54306823837,1641.3291751817,1555.83287147461,1446.23389254322,1645.47101243999,1941.80701230235,1921.90197265186,1576.25955744971,1481.29100018677,1516.14507925282,2098.50315742478,1937.33378496185,2159.55072566918,1657.7786864414,1545.58278081876,1476.8304260897,1763.2574567536,1764.80198423923,1924.38483495895,1698.03185466389,1682.05931367889,1708.61521632981,1990.35133501486,1881.22294282225,1894.11815808713,1800.67275854696,1759.99171815071,1619.82654907047,1617.66040757057,1680.42312177758,1783.58235048587,1778.25779532159,1719.56223157081,1779.81536512851,2144.46284529511,2035.68814659219,2095.48935362055,1114.12250222407,1616.94748009639,1533.52049316554,1586.22803156562,1590.10281657083,1567.15322333354,2131.33150828789,2156.72793259288,2302.88701116746,1743.18107088443,1659.05946192704,1704.72434585517,1555.26308749965,1563.51556935306,1608.72880285984
,90,2157.34374513087,2157.99421697216,2092.82987992797,2171.6689980745,2194.87652092817,1994.74851368005,2108.81199796805,2232.00740747642,2295.23752944816,2022.18416607161,2031.96581510237,2098.01656801607,2314.62151659286,2330.91956868996,2333.90945120092,2015.46898908972,2087.21582796653,2097.83063060753,1867.89748590438,1738.61286706319,1938.97690066333,2030.91863137372,2078.81506606122,2026.00479735586,2243.15409392479,2387.02233873973,2406.14373193757,2270.97458024613,2467.97203848637,2342.89648732028,2042.7962011381,2050.93595547038,2123.71426505959,2133.93246995455,2105.77300653373,2025.41289212934,2346.20036663617,2291.42148725778,2306.08267821278,1808.50720711541,1829.67630954389,1707.76244381154,2070.90356022311,2037.43844174585,2082.78192529622,2143.15343075348,2054.36187898667,1935.21002148317,1925.22544712742,2282.04393631944,2250.56464798232,2059.82996899534,1945.35260866108,2000.64068129685,2373.41799404109,2184.60837156928,2418.70427843211,2104.21075179608,1973.51325827102,1923.89235296516,2002.61614486277,1979.83622902944,2177.19897975807,2069.60943196405,2081.3784097381,2131.8388979601,2173.21143216854,2060.51755550059,2057.71826227197,2173.89573831359,2146.67191437181,1985.66679185688,1793.18017688952,1869.78764118621,1967.01252367506,1999.1952911337,1953.55783015585,2011.64336303934,2358.31969598122,2247.16335200368,2309.78165262552,989.516271955233,2121.81734565291,2003.29202331023,1713.35934978387,1740.0637342476,1686.20394511406,2307.02170990564,2353.69732775256,2511.88006908756,2214.96259740746,2101.64647323155,2148.60013265601,1953.80405153559,1978.72879442687,2051.58735891048
,90.5,2601.57312815048,2540.76900032501,2480.9123009369,2206.23430473526,2229.70261888757,2015.70082458335,2119.13647365639,2244.8536079746,2290.60105099622,2482.09433668582,2505.70367766672,2609.51882926533,2688.61895969155,2699.09322859156,2705.4118687558,1991.43205625539,2072.82038467132,2078.00677131712,2072.54708229972,1845.95370600779,2096.48068279562,2420.81219936556,2505.97985706928,2454.59987119147,2578.5698602101,2744.44718635092,2728.59978877253,2240.04813386725,2451.48278619843,2317.0729032589,2420.48474681074,2360.25549402077,2486.69677819908,2482.13503215326,2470.38545460788,2390.91377822409,2631.72005335614,2542.65263703682,2567.403045344,2017.95555173593,2041.28787153401,1943.76309412856,2394.67997214942,2372.44958455191,2398.64987537274,2569.57405941141,2487.16055953412,2372.54304293885,2107.04192452743,2491.24399727127,2446.91061505376,2464.65962358936,2337.49002062232,2421.80463172424,2433.61375151633,2236.15628462816,2452.26286241616,2478.57409245724,2333.83684382857,2315.34146666451,2125.68374222379,2075.09176766083,2292.21760147345,2343.46482885694,2390.23116984313,2466.27780246651,2184.47424821692,2075.44121221718,2059.05875653873,2463.85678563987,2456.71102748019,2286.83956321807,1880.21718724308,1952.44066102957,2041.50454754818,2081.36612495762,2058.47638129908,2106.59470906656,2370.09412056069,2262.79917028161,2318.82560864217,851.169559635788,2563.79753771258,2419.90976795666,1766.48119923652,1804.49653933625,1722.4378544169,2204.13366514991,2268.25277701341,2405.04345976705,2612.14131214313,2467.72705492927,2512.95570963575,2280.97847441436,2324.14127906596,2427.93449052076
,91,2839.90259418615,2725.29545843447,2666.77860196313,2045.26610792049,2060.74976900285,1851.78237958148,1886.66740205552,2002.37807912826,2014.62262683688,2785.28375046872,2828.9351086102,2990.07163342597,2825.80720395414,2812.37280103702,2825.59202184245,1821.98357038139,1903.12106097271,1905.15053533006,2153.68039233143,1838.73069092819,2123.70844676198,2616.19445674217,2755.76335388785,2731.75476684188,2684.71101600474,2841.26309901693,2770.27256262123,1958.73653261112,2154.53872816929,2022.49466120193,2606.67122321522,2435.36931717682,2629.30959921128,2608.0554738437,2638.7996904469,2586.13609035462,2661.12043136408,2528.74084600578,2557.72285082948,2115.04395848459,2141.22115222273,2073.25248792962,2512.39018974914,2513.68005183403,2500.26407901368,2780.89896750096,2739.46324758934,2671.6771837558,2093.20683227909,2448.60033794126,2389.38198429526,2688.44220808079,2563.71021450619,2678.69798882381,2252.90972322778,2063.62792481151,2236.77989438121,2648.4631515555,2509.5526213381,2562.99285308642,2035.50117286347,1952.70583361777,2155.88265157132,2405.86903545191,2501.25058977719,2593.26606402892,2039.44495282817,1940.80606114894,1911.88587912998,2535.56175889882,2575.5788166998,2432.08523112694,1805.14745376411,1835.00088109602,1911.57031331665,1995.41407188699,1994.21023835953,2029.76648202536,2118.71208577069,2018.81484323253,2061.16048169734,734.951539199573,2819.2874751996,2685.53586734932,1684.62878617823,1707.1231797929,1606.60742588096,1859.22838028374,1932.20330544205,2014.67776635399,2777.28928767359,2597.89028050756,2625.99569519838,2429.53672995141,2498.2819088355,2647.26653551602
,91.5,2582.69608476699,2442.04916660852,2396.39390500061,1722.60968808246,1730.95356645298,1541.15348201544,1494.19072112152,1584.46590756171,1563.20926145991,2623.58546658784,2689.21294403955,2911.380463472,2479.39079959885,2443.5084878729,2460.18067176192,1568.25594150063,1639.92451294917,1635.1576800801,2025.4882112786,1680.39068897416,1945.44553087721,2393.6865886748,2575.12357299766,2603.35591855031,2340.85208715896,2459.03842893641,2352.53957166074,1530.7362779288,1681.60809620865,1564.58202098919,2425.45788293453,2171.53324280074,2399.39702943599,2314.58492728696,2384.82350528334,2387.84596161208,2267.61263077927,2115.01868605626,2139.66514137137,2030.44627913283,2061.89334134559,2018.55610428636,2245.12706647562,2270.99411676076,2216.6981773292,2542.98907874443,2557.93248573412,2576.58547747834,1753.00711633799,2031.1503335524,1967.48581939344,2585.63386768916,2486.88670523967,2618.6472527281,1851.83500795592,1688.03670899517,1802.5614312883,2402.53555937946,2294.58040567781,2435.91098126077,1655.6467768037,1557.62411759491,1716.62896493342,2117.32926763544,2246.1558445942,2331.89102449342,1766.02120363065,1683.8190731927,1643.35811322203,2242.40187153009,2315.55639408695,2233.1680752717,1475.09767706822,1463.80947287521,1519.41974894362,1758.41764901357,1779.38179061383,1804.16018504032,1674.16602680788,1589.72677914255,1614.66684685777,586.945020119602,2606.1205647884,2508.6308035772,1372.81994820939,1374.63500116101,1309.55775071257,1412.7216142193,1489.4937609743,1517.43246724938,2496.12557595851,2312.20293756761,2316.29410931006,2219.91495352606,2301.74686066626,2489.28195743115
,92,1951.74402593114,1828.29003320449,1803.08254326802,1299.02184950168,1294.34388831267,1140.51251987356,1072.99641811484,1128.99132870039,1087.97703410391,2056.71745370086,2127.77974916042,2353.10105942551,1827.9678704874,1791.28470979804,1804.91580948899,1298.25525328076,1350.16404587705,1340.02311167474,1661.99907857943,1396.7675089539,1565.89489969122,1856.15469491044,2029.70601488214,2087.89226620309,1717.00427340892,1795.53166811255,1693.46193059836,1095.86212849504,1187.16884664421,1095.21477549677,1930.45122161903,1676.19193659893,1877.57723399308,1754.72041636115,1829.54743146071,1871.74812284109,1635.0379593147,1504.12998919427,1523.403087105,1706.10534710686,1740.36906750455,1705.99546685952,1706.82949729112,1742.38056667729,1677.23150468098,1970.28769547537,2013.02092142634,2090.75411820947,1246.55818110337,1434.78154226537,1383.07096722707,2123.16240312914,2064.61893547775,2188.11697390124,1367.07332944574,1240.61009690561,1295.37773415064,1866.60234533239,1793.23207665558,1960.63442360364,1158.0313419917,1071.0004399956,1178.46103528273,1600.9963560852,1728.91705345844,1791.18242017488,1452.6740231144,1386.34262393189,1340.80790514189,1730.90670741954,1795.6714896363,1766.89224227762,1032.74547469663,1008.74792548817,1043.28747628407,1427.52572505941,1468.48492051384,1483.61722905265,1205.11411545866,1140.47203870343,1146.33768192945,409.325347866559,2020.33889052315,1953.8853457321,958.801634800247,954.915543393179,945.016189521194,971.6546058737,1044.30123549624,1022.36611727108,1917.88223667132,1768.56850779023,1760.68161288001,1739.75481862589,1808.36810871765,1990.14192475688
,92.5,1314.27346296709,1224.91355782102,1210.98314310363,889.027483195983,864.752670962333,752.597018006943,703.948278955837,730.978288705767,676.231520650288,1440.4394726676,1498.43097395534,1681.79570637427,1204.08168630009,1172.5176749673,1182.39683149472,1052.35165977192,1080.25328467249,1063.68546808368,1197.02035490046,1039.34147818416,1115.27614677351,1285.86128658052,1425.84428090188,1485.22013351154,1124.81381838453,1168.08900126816,1081.73509562731,726.854129408111,763.356717106573,694.281140835042,1352.297533152,1136.93426761501,1288.71424465866,1193.8711174829,1259.24273779276,1311.28651074604,1045.83607418043,948.620755560532,962.581730367088,1245.64101898732,1277.85766226028,1247.0251532566,1156.42256141532,1190.51286270307,1131.30124875846,1360.68971920106,1410.71515201802,1502.36179417355,792.32361081688,899.436199576913,864.261014643114,1506.74662554534,1482.73680696973,1578.94444613706,919.430871388621,828.254422969354,836.685311029309,1308.31218355653,1261.61726859702,1410.69217959217,719.333954746673,652.052173755834,713.664893129067,1078.15709996605,1188.53955038618,1223.90007523184,1143.29533690684,1089.57467134523,1042.19012342546,1201.59434942876,1253.9586194402,1260.03437835777,650.760625973982,617.752332874374,637.403643772975,1035.02468653172,1082.99418673814,1089.12726602463,796.618531003951,747.324417397957,736.947896579443,274.749147378985,1397.07034436589,1359.78087216654,605.225505277597,595.944391553826,609.960828600352,611.818563676249,677.899246275586,613.307903687734,1317.43555730937,1209.85904460381,1195.8520042389,1222.81056936057,1271.40404352935,1419.45053237828
,93,729.803618938021,671.726848611742,666.984890552,573.435096278522,534.071940291497,455.084140981229,438.964994499046,441.421844005319,381.35854466095,855.496958681392,898.059858761369,1037.21462386193,638.793343143594,613.44416031169,619.915716862652,826.480044124232,821.678330887225,798.050071735235,759.406011952707,676.22191962649,697.496178106236,753.446126179162,854.983760600903,909.101924383777,594.359979041784,606.558672487669,543.190260308661,467.181646083066,459.106857540431,409.062058137322,808.51236689698,650.22931842405,747.112063006208,675.499423399245,726.353694434413,781.484272796098,533.740333696077,470.97608217379,477.569723730728,802.846369451254,829.936024449699,807.827704385953,655.452747175892,682.698898789499,634.356700603106,792.395583593314,842.047787845901,931.666310468226,398.934387729915,442.803494284365,424.653697688155,927.025255586427,928.01192193797,988.330451020021,570.142860991422,505.715200060136,485.100054089777,779.978692754158,756.173221445652,881.020027662079,350.601395992639,305.944077096569,331.586793137052,604.608293548886,689.731186223624,699.814451506278,834.898783865225,791.403692240234,744.417203600325,699.39454399331,740.170197010893,769.077178210231,327.814702440507,293.913824976628,301.601412723378,666.406859163499,707.688642010805,707.349419883674,487.547983647553,449.002961208697,428.595921182358,172.687011808238,809.274351024738,798.746202541596,304.611116278705,293.063262701551,323.26295825735,386.618091041132,447.906291288959,360.149269975679,754.823864824351,688.971605865297,670.513088354943,735.318979836868,764.949734959355,876.296579923799
,93.5,256.375957959187,228.636038539238,234.023644674871,354.745613451513,307.981806277548,255.254030990593,294.612882742098,277.278301763268,224.163214811778,357.032206303165,380.08678577041,469.484047114307,204.357089036275,193.777920462991,194.70835092997,626.636826954604,587.576067851207,560.005095084547,394.263304254264,380.242474055184,354.999717948702,323.513725004647,379.573213156975,416.40364306244,190.022914602383,188.273349342808,156.95284589148,328.135844647654,294.263906818526,257.196685449456,369.884912703673,288.485099452461,325.734851432119,276.223560267772,300.389395650191,344.30092246618,162.71257483907,139.075779929164,139.775632864172,426.033560926558,446.508642222999,431.223469293312,264.924549774604,280.130708694118,251.329128470333,337.497183074047,371.844045925897,437.784113663054,117.612967835644,127.644240730985,125.621110115052,449.971465714679,468.270021384925,493.404003170895,344.302038962411,298.133973163035,264.094909289503,355.361079149023,347.223776791262,424.836269123658,104.110200543192,83.7359083895077,91.3265693317074,244.32732211545,294.446098126951,288.914564947413,562.708498121793,528.067060399086,488.076531139788,316.641678342796,331.063728519583,361.043811908154,102.178450525006,86.1486060884923,84.9491554737041,395.785562860579,428.365993492289,426.204708330146,308.083478618884,279.650871644046,254.768192949125,90.2606529571844,323.848103546129,322.942329262221,89.185662563988,87.0170763762249,127.270226017041,277.10462176417,337.299002876964,247.286027825028,315.940171629908,292.258083464666,278.171480455168,337.746575895062,347.196518990524,414.364935191934
,94,44.9002203278091,35.9662002238917,43.7685430529151,235.882976712317,181.28469421295,145.305069424762,244.54589274967,219.081157615579,172.606090911792,103.015879770079,106.188654332203,144.652230083325,29.1949621342825,31.9384531697408,28.7287370780774,530.055511133255,474.28505017549,441.964165701979,154.894604033122,189.165022746722,139.277741858444,116.949824188633,133.798030873553,142.922154314733,27.5354806666583,26.8682796074842,17.9990942866737,283.83495434046,240.186912790138,208.907503684369,130.373261711054,111.205169566349,106.941845585026,101.531911804243,101.62686484252,121.103698200185,21.2407119168976,23.5560118311699,24.0399784124348,162.815514615563,176.671644792906,165.880119579767,82.977821671515,85.6595588975642,77.5601727719544,120.336659029935,130.484706930541,155.518418856686,17.0134086164919,18.7158045699749,27.7801093749575,151.699679578721,174.319998260973,172.514712607759,244.248959909845,206.325308596969,168.629428741055,157.70216980175,150.086154413462,175.850260984239,22.0252752462627,18.3238394854885,22.9897081988465,77.803811286353,102.173078107051,89.5398577034071,422.57581565244,391.602192611352,353.671509891017,135.685301383483,132.177372610026,149.292159076685,24.8756060705397,24.1309854720696,21.2315627115282,219.772966178392,244.983279944939,240.388173889143,247.656086695598,223.863179820058,196.546335760605,54.0130367329598,85.3004650337409,82.1172717808638,12.0341278212509,20.0277175410679,43.7919575108908,238.610284348284,299.328582397362,209.571882865237,115.512014891003,117.187881945017,111.104126763994,139.742369091245,134.103329119568,163.067802462433
,94.5,28.2641060626414,23.5732588309263,29.4091891724426,180.900469095698,121.974880787659,96.3133882735787,232.589833537475,199.822254859375,156.735307586341,61.5690053462459,51.2992414873542,71.8452972284392,24.1621750296878,29.3967604543379,26.0765108176616,394.244029526062,309.185818002995,274.647431290692,59.321526340677,88.5855893510906,53.6139589414864,76.3650494895049,79.8848815307026,72.3340145467266,23.3107502551011,25.1132266260817,17.2264947240922,266.195259644578,223.610375219525,190.219329796982,59.9531413628724,63.5889379221078,48.3532700429736,72.8704425705989,67.7193863750997,67.6127783035961,19.1143879805587,27.5436208405284,26.4921265986787,44.5046268100352,51.3109618362372,50.4699030911224,50.4358848315943,47.7553480043889,42.9615326216739,80.7694627071646,83.3692342058852,76.5671221410261,22.0238190419498,24.362769210055,34.505286819678,46.5066442083942,66.9248275738145,49.5771984099159,205.986579471937,168.542572212281,130.481829984606,110.137290982118,103.631259411444,104.254566794716,22.8956006257674,22.898859603081,31.6676299624887,39.833065806142,49.0596645701989,43.4834105203968,244.847598270732,218.058741215389,190.679982477716,81.5838750309716,75.8070143415013,77.6613584002307,32.0428552798991,31.0783266934407,27.6171940109167,108.963689501821,123.021841852736,119.145583819748,222.014379267687,200.625572789836,172.193275262814,49.744089244316,44.2716891756593,40.8680822138483,15.284506684241,22.5381695249648,21.8437213114166,213.628282492767,284.352121086893,192.087000788913,78.6279917155628,84.5398528840126,81.0913289074732,78.3821843531549,74.5192588869461,86.9886872927507
,95,10.8486245719108,8.90508719007335,12.1102233920871,65.099725522616,40.2057807211029,32.480680119092,95.8154481150085,78.0392115722624,62.2657759695087,24.0201948248379,17.1142009815766,28.5046955499208,9.89491522326136,11.9528415179313,10.7531482370993,112.121952564572,64.0113294905265,50.1639362715476,17.3571667913408,20.595790143483,14.2233814697696,27.2249787422201,28.654129724209,24.2638338757736,9.4105629236501,10.6750556108642,5.75067965017229,106.142482041724,89.2250374809827,74.2985455216544,19.2992607653282,22.961882265982,17.3150220350875,25.9268862921469,24.9397018767402,21.9735833460825,7.46525821458738,11.7964911163166,10.2038442652212,7.92538032073867,9.07893759411979,12.352175920746,17.6871310717071,16.4799833439902,12.1908241767127,30.5475291112539,33.0226650213157,24.4260937458779,9.95872956514017,11.2597006841485,14.6470141061089,13.5618734232828,21.9477111290443,11.948303365309,80.6146586012152,64.4311015872512,48.6737260572147,36.2252656441252,35.7719583438669,34.2025716002238,8.83055320690141,8.73515534798628,14.1725998350048,10.7772799803704,10.8335652952965,12.6843715450782,37.4492443897536,27.8504997062213,22.4451505060382,24.3931632278976,21.3275714250655,18.4642012335844,14.8334225680234,13.9876931389965,11.6081299510566,26.2640630867008,27.9978406642315,28.0384347358485,85.4526248392784,77.9351598178517,65.6991826463661,19.5383285831608,15.0700818600765,13.3821563154713,6.37680018982701,8.63677873110328,5.50650334288366,80.1019206862201,114.456487736077,74.0164977900397,29.3462680640653,31.3261113368847,30.199923161137,19.9233354067563,21.2291830363176,25.2674832297878
