,Cycle,A1,A2,A3,A4,A5,A6,A7,A8,A9,A10,A11,A12,B1,B2,B3,B4,B5,B6,B7,B8,B9,B10,B11,B12,C1,C2,C3,C4,C5,C6,C7,C8,C9,C10,C11,C12,D1,D2,D3,D4,D5,D6,D7,D8,D9,D10,D11,D12,E1,E2,E3,E4,E5,E6,E7,E8,E9,E10,E11,E12,F1,F2,F3,F4,F5,F6,F7,F8,F9,F10,F11,F12,G1,G2,G3,G4,G5,G6,G7,G8,G9,G10,G11,G12,H1,H2,H3,H4,H5,H6,H7,H8,H9,H10,H11,H12
,1,72.3292730126004,84.1735206590593,145.934865089165,-142.811911881734,-233.459953028627,-196.526671538782,-210.214635416965,-161.582304328324,-161.568965681412,-107.323257898235,-112.431875732101,-208.52143146891,28.617248155897,54.8434953097239,63.4293672588865,-52.7061673165772,-57.8771473258294,-80.3027084303467,-44.9564335436517,-76.5025629097208,-31.6736646255331,-5.02864706445507,-2.26765311130384,-111.602926454158,-17.0798860425621,52.162893367673,44.7496434697787,-18.8037008174488,-63.0841613530101,-66.9717345790232,-57.0111939902572,-119.334865325687,-52.9413932989228,26.2998650480149,-3.3552562053319,-73.5417122696144,-6.06532769653495,19.807436627535,23.1879410106776,0.238558480811662,10.125921804648,-12.0233770636623,-21.0504760847452,36.7773468171599,14.3218155225441,-22.4625045831945,-3.93878526180015,-99.3284259697894,-22.1717277233129,42.4919465683024,44.2736395728953,-22.883544753955,-26.333348611618,-1.09302630326147,-80.5791470546774,-162.549544163519,-144.673180015739,6.85176438663802,2.61878041516684,-58.2804240763307,-20.345710338569,34.1479369058452,32.9512609237227,-1.49106360460246,-16.1418777839053,-0.612316799774817,-27.9056273636324,-86.2306897141498,-42.9906488226989,49.2508533329446,16.8772436687022,-65.1355702112551,-10.1163181894999,75.2225998167032,17.0203127900186,-86.1931641501178,-94.8231636100809,-103.96869927493,-33.0074444736729,-24.7934675793858,-2.96766589263461,67.5695741250665,-10.1356212526225,-58.5271350047824,-20.9769957120279,-19.2969756670254,-9.803871535707,-103.291374897444,-29.7854016809652,-71.7617310616097,3.7881211445092,4.45486749340125,8.7879279116205,-39.3663557182617,-47.5237429712715,-130.107348760618
,2,141.128985336836,152.822354019864,199.423209189919,-40.4906055080482,-48.1546928040789,-28.2196908936421,-19.8447760830004,-16.2867253047079,-34.5422016082084,-15.1239919823956,-14.5858202860336,-64.8381509971769,48.9308453539761,46.1525841051334,52.8841811745442,-13.9307578946973,37.346324363969,-26.2815622720809,-16.6475554013923,-25.8174835118843,-3.75634386878119,14.9590565603457,11.39596980441,-12.8954768631302,23.1252066615889,39.0550513371982,38.6204438957857,13.4338369321995,-40.5207177120901,1.62931066780766,-31.7076468452706,-30.5699152046682,-30.3648640685824,30.7151621770299,24.9455820404437,2.88031970946486,23.1267012837861,25.8224657438186,28.0103165689625,8.87829098194379,12.4091554541055,15.0649324412261,12.0903340435971,31.2626942844709,22.3719126425112,21.3145466095611,4.59330021956885,7.38165562587164,25.5390630675829,42.6152504818883,32.6179036326448,-0.400218491980922,-1.07809813914355,-0.211008293956183,-22.473265699693,-25.434093351947,-55.6946482128278,15.6396267504661,9.35882817161655,22.2601406898029,20.0303326510657,29.9313675071253,33.2258812575228,3.81701221558978,7.36247794225801,16.9358036173617,-8.31063996510602,-39.62532133688,5.60461308192498,32.6019238596264,14.9751999857672,6.2552294213765,12.1273415108699,21.6498345601849,23.3000244003342,-25.3717131019912,-43.7856583626653,-31.7086351957878,-48.9274520389499,11.7777116217021,9.87138975072958,76.8902528134922,6.81964774795597,13.2294371660955,14.0819279534462,17.7954752913683,26.7438970597832,-20.4286507022207,-17.7192726413614,-32.3892245534262,34.390317839483,32.7532639347683,31.9105775260705,6.35712749132199,-6.20942359774745,-13.3786159812507
,3,176.279700517189,181.297266215816,223.952949059477,0.255599947555311,-4.06774813816446,-9.64247631528633,-3.2899107355297,-19.8491767736177,-4.41056385152478,-7.26089520780715,2.43406162872816,2.45529846823047,24.1372481346079,28.7248428601552,32.5747076425741,-5.61755127588913,23.9153006773595,1.86443918338773,-5.40953392633219,-13.0534852144337,-3.61976971583226,10.9170607355609,3.17610503938704,-0.358007023115533,23.3648528484046,29.6883182543452,25.8978637622122,-14.5966241140068,5.05985731317742,-1.81687934478578,-14.9136061179279,-23.4772013946622,-16.5036225214444,19.4861308759173,12.8987306381059,16.246311548688,20.4225678453768,26.9352946451345,20.4704514646301,16.9258765892419,14.45503477681,7.04986827867833,11.6655519058686,24.5163028708021,10.2203808129298,-3.80001377292501,12.6265866936519,11.7899271948045,22.3850687955755,33.6712875031581,27.1444574768848,7.33312368402949,0.763391083628449,7.69012897481389,2.76733639900158,5.59545175235507,-5.76721044929764,8.07851596094588,-4.33815752560804,9.82800836193564,18.8641215378002,30.9273198936553,29.7060595725106,0.716545223803223,5.44893100108402,7.50729820606739,13.4748915573746,9.16645274666917,-8.63409686701925,15.1506716444201,14.7471346106167,16.2234822076534,14.9469378026015,14.3544312500308,22.699494072267,-5.7245939016193,-6.95051781935399,-2.12784332392584,-14.1838799600901,-0.275255239734179,8.92358029693969,65.4809429250772,14.7344624917469,12.2281947322945,21.730698036723,17.02343812456,19.2430414955206,-15.915279586734,-2.57599361850953,4.55995108968273,18.8967627137881,26.2194596383197,27.8609867121913,8.44506303753133,12.3688393727516,6.10175066038119
,4,222.165595158931,220.531889253811,280.734930230747,9.07212628496382,8.55626461100655,14.5597050428114,-4.77523465491504,5.15822009408839,17.3209612662286,5.17669989554088,9.33604284231933,10.408857488469,15.2190807480556,10.5931046255673,12.7858067173574,23.5304470150586,25.9905680198281,21.9851264636145,1.23174630547692,5.22625401964979,9.79092856914485,9.93594010654579,18.2536759988607,16.3084002748046,12.5182639498507,20.4465466736601,20.9691791319874,9.23893563203819,0.370716121766236,30.1925134333087,11.6361098339266,7.63633944861613,-0.801489893111466,10.7310279930989,18.785135399713,10.7074080713273,16.9119648096466,18.8427322642401,17.5475698481587,19.2608509962201,12.6664474913368,15.4111002952995,-0.00963761634557159,21.4993461395661,7.19768099407975,18.4457987764163,-4.60312613259157,5.28941698202289,21.1640724982199,31.4625739584517,23.2046092814726,10.2604014934041,8.71276094551922,5.93875245532126,26.4124146522518,18.1476963135046,19.1126329732251,14.4504828590761,7.30434304220216,11.8171802129709,14.1294388575088,22.7159374493331,17.8955706500428,5.52828896374194,19.7048946606401,10.9644054930759,14.0586379824763,14.9144305286754,12.9348413954103,15.4256357533659,12.4811900555487,14.8863041249269,18.643179063014,12.919281402812,8.7842628166527,9.30807878855921,11.296694460958,3.1732423802132,3.10646364454988,7.39054633916749,-1.02929208093155,59.56015537436,5.95061241183339,18.1085203533667,23.6057708622657,14.2266475356582,19.3180212097277,0.111748761237322,-1.34523416960292,-13.5599082258504,23.6707699966191,24.1857476379791,21.3389093501055,2.31311923826888,3.6045699431279,13.1709065820942
,5,291.224699755843,297.922550552908,369.681114729413,21.752350998262,36.1097232332595,27.4326156049337,34.8464764869696,33.8352968491636,30.7940374271548,25.6867146374643,18.607429839848,25.4832913377477,4.46437998454439,4.92079083744011,3.50156688188326,2.88661888650131,-3.8603923445371,32.6990029345488,8.63290145596784,10.436570933598,11.6292594236493,11.3763817321724,21.9520221597086,18.4608723464589,4.51284839717209,9.36570443806522,7.45643150790329,24.1426552123758,17.3196513938201,27.8543159491619,6.25876053571301,21.0675450981853,9.73194716128546,23.9612390342245,9.53440687077455,26.9417153890954,13.9353335384603,6.45328280624108,13.4507376307183,8.20862396007306,10.6217780234847,10.9214273690468,6.97860677357949,12.8075528394293,5.93617234139219,5.26215584387137,8.1356748643484,23.7770385844342,16.4942121288523,22.6753227903446,14.5494248876666,12.3331368458412,6.84133488010593,8.15911099823643,28.9254269058329,31.8043157346783,31.2460607687117,12.9297125507128,17.0275719162801,11.4816707626396,17.0831141240396,21.6711823104106,13.7332271439745,-1.59232672723374,10.4563619141818,12.7961398312855,25.2575548327077,20.1790928012524,27.6667959964743,16.0979188050815,11.3826848084136,3.21762707016933,15.3215624969425,6.85374635923927,13.1924958335776,21.4666350909356,13.6868409583567,12.8404518557436,20.6372298271835,14.640488428402,17.8231125592192,55.7231296852697,10.1600187218764,12.7589072387236,18.3296564728525,18.8414423418153,20.5246106074283,8.13347376053207,25.2066069075736,15.3914636837835,13.6310910909961,14.608499260019,19.797310658173,4.23599715757973,9.72939854367996,10.2158701395374
,6,422.936322900652,401.220276912938,519.397813683075,18.7669556265173,32.5773432546684,27.1167370510975,-3.34797741723196,47.3296524711623,20.78852446573,24.9820064081723,16.1263716445656,18.2550533027306,-7.97718719212935,-9.18991279557486,-5.20982307248778,30.0812451489346,23.0128193929449,29.6492164782867,15.3244362530641,18.0049451249142,18.6886350346294,-0.97086836924791,13.9447493245971,15.5983063818567,4.29804671453167,-2.27126821720231,-4.72338692165522,20.6735778477851,35.4322085181957,30.2723567618395,15.8377113256265,29.648685151813,17.6272011164892,5.9202403395193,14.8209379365499,16.3824502697526,12.8172683552302,9.09238038728472,11.1604198521918,8.48424422102289,14.3426460988594,7.61243419627772,12.4767325222037,13.059456852091,18.0717264212335,19.5688445746619,27.7831656896633,16.5026117443904,9.75972469860426,18.5495578289811,14.5555428404659,13.0128759292247,16.075393309532,14.3421379097717,38.0599950720516,43.0780520165754,29.605110764729,9.93758300748596,12.1507839972546,17.0966553071667,20.3075374572863,14.0756540954499,17.3047883674708,-4.26248846235558,11.1935477578763,19.3899517807822,21.9445736405396,18.9958255180663,18.2380280063117,15.2005404938991,16.8883041788504,7.90379691901217,21.380689305819,3.06044491041757,14.2990435762104,21.9807456323142,27.2863942819295,15.3950442905225,13.1853320391838,14.219084229655,2.91491288988618,47.5361038736301,8.06723140240865,6.73101577595753,15.3199897826171,12.3836070938341,11.2164177774994,42.3803839932589,-0.377191708603277,11.8563595428022,4.22892402254729,18.8492338131091,15.0417249035054,7.35624648882458,14.9533666652205,14.6761743569141
,7,621.607521526766,599.001374806932,774.706206383303,28.0005422183076,28.4145307133076,11.6050003871551,13.0536227060275,19.5722450587327,14.3963993620146,5.5795756984844,19.0470093573731,6.1384265562192,4.2257073257515,2.3283410250524,-8.02891486506269,35.0298676986567,20.5802204096708,24.3553272067838,14.4627642089308,12.6680642705869,14.2167846975062,0.893842071264771,16.6900480361801,19.9301635954644,-7.92637663425739,-11.275856477042,-10.6110547254166,39.2936017505472,30.2486084902994,21.191412254313,21.426967524355,37.5686482181673,28.9112009419814,9.35749749600836,3.38249868015009,-0.838170353058558,1.26683173287984,3.24502847851454,5.15588276827566,8.84536071037928,15.7722775221491,13.58073085873,10.3090172758602,13.1807007415346,16.5740689790591,20.1276227675226,3.03752563727357,4.14850637642485,12.1677279811302,13.9866307630919,4.92859307624076,12.2686410191054,10.0298675498088,11.8974657169183,36.6207612178332,28.2461847853883,56.4721089919149,12.6661554555321,12.9412377387362,7.99793641141878,7.2228853945835,10.3170839342747,7.77931959757279,-10.1191354407174,11.511624801261,8.71985117517579,25.9729904966553,16.6189746134023,31.8915892413788,12.1264502786507,1.63363257072615,8.47318116633869,14.3369889116602,0.907982538748001,11.4478909540394,21.9958019355836,23.5358726197082,25.0359999125631,11.6958302957319,-0.0700785344615724,-1.03515067392254,33.3710877608519,12.2980506184604,14.5363778411829,12.1193562521794,6.62276941223172,6.71957731347993,7.02856605114721,12.4178261899033,13.204102927024,-0.538100028683402,6.52426387484229,-3.70785551204335,10.5778991937595,13.2933982664417,5.99221833534375
,8,970.801597255529,912.304309294905,1217.80883746621,7.99448982908507,10.8568001635613,0.741920483407739,1.60638005361579,28.0291278429777,24.9122365276235,7.86462206915166,2.53620900187161,15.1849738024512,33.2215856233061,36.5058417470636,8.39119922662849,34.8265972681129,33.5678348733982,24.7619508134248,16.4605689171531,15.7165477654089,2.06628742382782,10.521659161659,9.58207783261605,10.7874733245544,-6.72023068460294,-19.4514950235607,-10.3017714985326,19.2068613699212,44.4813816672358,27.3780928529268,21.9287954701986,42.2365197536983,8.58399160300996,-5.30638728134545,6.07559748226231,-6.44240015540618,-5.37123230387078,-4.09436528144124,-2.63703328156589,11.159446591726,7.5215304601943,3.65661308455128,4.72107254930506,9.16588699495969,14.2572332343889,6.47676936281459,15.0198612394252,8.5334260104064,5.05032549648058,7.8676853747229,4.06181647843459,10.5246344793186,16.1849865878712,6.42542161716938,32.3362821464343,14.7887113670768,39.9761885901498,5.75375185415032,14.7448175378031,4.91483194279681,4.40514124720721,9.65099350454511,7.29382588823864,35.4808760651522,1.93723568095265,12.4487260366795,22.5320237514788,17.855613073425,21.8254914377176,3.91003377065135,-5.40691400233482,2.2325215930814,17.1730577792005,-8.02620893966741,11.3384942415969,22.4937434701769,11.465503067313,19.2900240099825,2.89926432118591,-6.44214779575668,5.08115312047994,31.2924393249068,1.63504867786833,11.9989650118023,13.4532210927573,6.92617311283902,3.99142276337079,10.4547166090961,5.26030947930303,25.4082450302303,11.690161478924,3.52942472486211,-9.06791095662811,12.5301179665648,-2.56207806241764,1.80500974520055
,9,1523.08142391183,1423.17771070313,1914.02876761643,5.31159264604867,8.79427271793975,21.8390831658598,-24.0297002114585,4.30122801441576,-4.00553467072496,0.538525144236701,-14.2205487605634,4.7890257420022,90.0091542619048,92.6576355431134,39.3479398853879,-12.5101226562019,46.31441995555,2.79444819276978,9.96687401839699,11.5963320172423,10.8854525725483,-3.31849248385333,0.839429837218631,-3.37925177818488,-15.0372464959637,-14.3015208166207,-19.3398339418509,3.06884224084024,8.64692379390181,2.2803689404227,7.55643880604293,20.7059808278209,16.803382814297,-0.620988754249993,2.28207476943135,-6.71883503646677,-9.21479955037103,-5.00280428572751,-15.2233669920734,5.92071923535423,2.26956279813021,-0.75727622631166,5.0480766562805,-14.0615460759391,0.76524423390947,12.282774007228,14.8989388413556,3.93339885880414,-10.5651044946935,-4.40382638777373,-4.9959988216533,1.29945774341741,0.070273333059049,-3.13174036730925,16.6411898772803,9.02081869971698,12.2789035835376,3.0996020972616,6.67645023419573,-4.33244525767259,-1.04148516585883,-1.08996989641309,-1.1208854314882,25.4635387476274,-0.0297534141063807,7.83884600109286,7.58748915674551,8.39237044613583,1.89851626658674,-3.06311591868507,-0.195686387170099,-1.6213839804841,10.3703841173647,-10.9555091493357,1.67499280898846,14.338160692967,15.1899829070517,10.9033133183802,-15.6781985612579,-2.00301405777827,-1.65353700611013,19.5552196773706,11.2204153516659,-2.47897667372308,5.01989182471789,4.18857749680137,-0.241733256205407,-3.48172956987401,12.9500178107701,9.50101585296579,-2.30039772877535,-13.9462730109408,-4.0893575938735,8.45836242284167,2.38839233497674,-4.65219732165497
,10,2416.67872595576,2219.81324554775,3012.84007119016,2.59558435305189,2.67850507635558,-1.1872003991266,-14.8347272158262,-0.238984840943886,-17.2018574265821,-6.08986880980956,-3.02596416679535,-2.2177464123879,194.146083548106,205.528734100591,112.629036346695,7.40762006384466,22.0998077908571,-20.9708814958485,-0.0701422461097536,-5.1899852967581,1.97576233284872,-4.07006767205803,-7.48443602485349,-6.71740604360821,-7.5484604798412,-8.889303772532,-9.8168828221178,1.00405945311104,3.93872354021005,-36.7604410583099,3.10247692116718,7.23528874303884,4.16109748166855,-8.26835431505606,-10.1917862326509,-7.14093299753677,-15.8772944599286,-28.1635987790969,-13.76433755176,-7.4644453837891,-8.90472331095498,-7.69129754255482,-0.907464191698637,-23.9086487135319,-2.72350909446777,2.17896040574306,-2.10596530817384,-7.56607698999323,-8.73600174655076,-9.4869800504348,-1.59589076910197,-5.46639970003434,3.10310900465993,-2.04491050561046,7.96657929831417,-3.06189700037976,13.0764474651078,-17.8734881827459,-6.50641078310946,-13.632369288327,-5.04082782943715,1.56656636568005,-2.34260118538896,25.1193935134088,-3.08553472495532,4.4340419242144,-18.1568562503035,-17.0873996959235,4.30754443497608,-6.36585386618845,-6.19416086387628,4.10556382577306,3.35411542222118,-12.3951436036596,0.952602844616194,1.63627664392152,3.6538214623597,13.3503024782858,-15.4859800853083,-25.3843998389202,-24.4154821685861,4.4857851175675,-13.8120560864836,-5.5726960710972,5.77428836796298,-7.0010666235421,-1.76404762253514,-9.37136684943835,-8.97322679276294,-15.6930351194296,-21.0001794987566,-28.1725178681027,-17.4649064188116,-0.717664514169883,-17.3479410686832,-8.57723801031534
,11,4138.56978776389,3804.49089493631,5063.71474641513,17.6963504024297,19.42843254322,6.49638470452192,-0.980496140586183,3.79089250209654,-12.5812129936567,4.88355864431469,11.9496469840524,-1.16146166273393,446.743161205247,474.683114945798,276.632702221997,12.986601679102,18.2635468101089,-25.2208263523189,3.72675234774397,-3.86066683722038,-6.9934779837813,-6.22402496307132,-11.1454956879606,-17.709327776769,9.19594134234285,10.4313868293966,11.5907509392655,2.48311862539958,4.45792226207232,-41.3054671500468,3.90608373563555,0.0437337865514564,12.0214021733855,-19.3931062252668,-16.1632084931716,-6.22572091110305,-17.6025839509894,-22.9512775802823,-20.4256492272407,-10.0617277698129,-4.54092185147965,-10.9594023216505,-2.87392234728759,-18.8403085716509,-4.59244724182645,0.99627588129988,5.86496526427072,1.6344745045335,-15.9543133110255,-15.9490170694362,-1.17773356269663,-3.11860762857577,0.1356719667383,-7.84978967021561,24.1747596601344,-0.699024569787071,5.65073781798674,-10.596322958696,-7.83758982447034,-3.62901555318604,7.11553803072638,0.402894932536583,-5.57118958168667,10.7208115946787,-1.91778883710867,-6.264918471893,-16.4207153442585,-1.98864963410415,9.82364986035645,-13.7603157818103,-14.7295851936069,-19.0989794063316,-0.44778738948844,21.0452851796936,-8.37287491851748,3.46524544638123,1.9852887588695,0.586137804857572,-11.4592362248641,-8.92498484970929,-8.71005464914379,11.3129632236114,-13.2577461007259,-11.1853253392255,-1.36040406334178,2.98677659614896,-1.02063135143999,-9.47017040371975,7.8639201001879,0.90871046195025,-21.6764203824077,-27.7041129901154,-19.8649160006626,-8.93430649879519,-12.1092881225068,-9.77254945732057
,12,6204.55407069389,5752.27838890384,7287.37954243441,10.8985339180563,-3.17634325139989,-3.22468303198548,3.96897653569613,-14.5882919848882,8.26865282211656,18.5146940606501,24.3699841411672,-6.66521132825346,798.836922400195,859.147134112554,524.443732935422,-3.00151837060548,6.29260419287129,-39.5815353295657,-7.02435756749401,2.9511917292748,-7.38444975546008,-15.7671606322492,-34.1495768109344,-26.1489064104844,38.9606902172427,52.538046732986,47.6262667436222,-8.73731161620344,-1.41017899470899,-34.4341413668863,-15.9616305852769,-7.42500552281126,0.106295567386042,-35.17930766278,-17.6932240789001,-15.9676866648078,-21.5689193416183,-24.0783871848798,-21.4931308131045,-10.9505494731402,-10.1315829574296,-10.1000558393216,-21.7788853774919,-24.2607507936636,-23.0587808875962,0.553774358548253,-10.0716448052044,-20.203926424776,-24.1521441823543,-24.6046984287659,-16.3756272326837,-5.3816476734255,-15.274768958112,-13.2480401082894,10.4037898289389,23.4109458261628,6.05584738743528,-23.51885274091,-27.0973127164307,-24.8186744233499,-10.3266085332607,-11.630748790807,-6.80180806955013,-1.74637564323803,-6.28597833280037,-12.9167168196918,-2.88464656272663,11.1091551131667,13.4878032160414,-19.4158995394164,-19.4355356390006,-17.5727482680286,-11.0585258565297,19.6286904194258,3.03427140621352,-6.43038585106478,5.28452985543299,1.73678420206488,-8.69165567524033,-8.1557662122068,-6.54222099848812,-11.7534079463376,-9.62185962859348,-16.732164261206,-5.11876962992847,-1.78594775348665,-3.27016259270113,16.1689234506648,13.0212688962456,10.0048457750127,-25.4765819539098,-36.6136679561532,-38.4291845132648,-16.2778450734713,-17.8532300516981,-17.1753454946966
,13,9133.84886662227,8607.75175901991,9928.37599618641,23.1432205810561,23.8699692813698,14.0014994576632,23.2222683914224,8.92866263517317,72.4356500840222,96.7051522346137,58.7487386610901,40.5604053707848,1565.83831060797,1681.52576266799,1050.02704043401,12.9828718731897,15.3306723884307,13.0614134846983,-14.3119201922182,-16.4094463351958,-4.80011567564543,-10.2362666114523,-24.3437112441097,-5.74918723392238,119.223726775743,156.063433066804,186.109323768907,33.121343773093,43.081441539558,-3.66168522004227,-1.14363434588176,-19.1367685481309,-1.13117246207639,-30.7395968801811,-20.9764228783833,-17.9711370374098,-23.8375106287494,-17.4508726917156,-21.3180834727555,-7.38558589776858,-21.9922625186246,-10.1174991958342,-13.0035903950029,-37.8102095247868,-16.5806860751245,21.5980571585587,27.9471971500898,14.1695104281625,-17.3264683868065,-27.6088671299894,-17.9486128119361,-17.512716980923,-14.0920486377008,-8.61475102941949,82.4435813877117,74.4364765244009,69.4256901452572,-24.6841022506924,-16.7185590792051,-17.0657286219121,-15.2736986260488,-10.3135339500423,-14.4390060676878,-4.96628669496749,-16.6883202421113,-9.33421630009889,34.9495753354895,47.2459219302691,50.9121213318776,-32.2052208482291,-17.1919780127282,-18.581835027765,-9.88213412024925,16.4176110998578,-7.29822033385153,14.948827993072,28.9633678954815,15.0036665503521,31.4558257481895,42.5290595003444,40.3096590458208,-15.7463458933908,-12.1860260653557,-16.0738899799289,-4.01452602161862,-4.48447047785157,-6.55666001988266,78.3567857373218,47.7108415080002,34.3478312598163,-27.5603632254988,-36.6242708556256,-25.6456421123194,-15.8933057539307,-11.5422994530709,-6.24265959049717
,14,11759.9994260819,11212.6593623479,12139.6482551751,74.7548602357256,48.9943002493692,66.4059522517637,102.262647063781,96.0670344254013,149.389242505556,217.403714717615,155.875578499332,137.724336841882,2750.35390574635,2966.35733603237,1910.25287492824,57.318780096808,107.460088342457,98.6467242072795,-8.37833888264231,-8.810772548557,-12.9479208544863,-7.61435227618767,-16.820285437745,-18.9034769756527,257.151470576825,319.798464208397,329.679945956107,106.783543255428,137.750180161842,71.6910011758191,-14.9567378319553,-21.0026147703884,-16.0713994283415,-29.5294698023645,-21.3535196049488,-14.659039497802,-13.6044582297118,-9.00034892250824,-9.66319632911018,-16.8842976151091,-16.6992034559489,-14.4937688684267,-18.5122564396515,16.2020435914565,-20.0595680899933,51.4208456490342,62.1016027196711,42.8835978766001,-23.7090151615776,-36.404344307557,-22.9958376201885,-19.4684981748414,-15.8872683598111,-11.0211213900702,174.668829180606,176.317883327039,147.545956975689,-1.37334625747462,0.0461694774367061,-2.13741710274189,-20.3250377895693,-18.4145463379364,-11.6362020298102,-8.55900627678966,-13.7359095019601,-14.8727745844899,119.229085582552,129.253378884658,123.100545846895,-26.2156928900531,-16.5398251386368,-24.0259103504195,-12.8900176768166,4.99726482644928,-9.1045359017935,48.5101628531193,51.4087142311128,49.376273289532,125.136141167592,126.978444586188,124.099205132628,-37.9637461675375,-3.83901967164184,-21.9648176288265,-11.5388659538112,-6.13349503430254,-14.506488867909,178.089409752441,163.39942050129,91.1461641741553,-27.693679037704,-26.9774966197201,-25.7005421975791,-12.2737202681201,-11.5507264094949,-16.4617620524223
,15,13880.7293774114,13368.5185142177,13750.0995109236,155.10285913079,153.634404051731,148.937831969408,260.981146103426,230.672946859819,315.156494126597,422.536016377931,351.50167550164,273.295616907672,4630.86579053761,4982.28240038027,3327.11611038648,176.393087209633,235.101852544662,227.824714410543,-19.5645693988126,2.99208404857109,-19.4354207333527,-0.276892665985542,-20.7356924207597,-22.1170205028657,479.913687407248,683.731936528965,597.299736326346,239.876802953811,291.397230650671,244.231972528351,0.856578890278797,-1.20502451371794,0.951394479177907,-2.62885193866896,-8.38330908722401,-12.3392146970746,18.6741270774892,14.1089604606077,18.1937572113748,-20.1586253653195,-28.7082801711158,-9.80148290140278,-6.51140377455704,9.73218431423447,-17.1896993473383,141.147801198504,127.378361302804,93.2339259748223,-23.0444689682099,-32.9343460907812,-29.8711527463138,-17.7259197770263,-13.7419309040515,-13.6665437885076,387.03734978427,401.349605426798,339.094411759528,11.6328071703683,1.86264867786485,8.57760697666527,-21.435478822279,-29.337034640017,-14.6293007660088,-6.02826902178185,-21.5638857891008,-18.6983121625435,286.452052745091,282.267728376684,261.926368523109,-28.7026004254394,-14.5324352039024,-10.1902784550348,-5.50751882947952,3.06190068456181,-5.7414096483617,128.194449415932,127.840675383324,94.254723834676,291.191115408077,322.235968311699,317.46910332233,-34.8263339264968,16.6345804649573,-13.1953672075679,-8.2785336788138,-16.8084770033274,-12.8442246334516,375.025126938024,318.883495001946,236.838625241044,-20.6292429236728,-5.02163975161602,-16.4627441452867,-10.0296911311025,-6.37323869389456,-5.01592906122369
,16,15403.5442099056,14948.9619568276,14859.2162661552,375.695751775706,311.372894903869,299.395901369482,563.046618363045,504.068780937145,677.861837463977,858.941802391093,708.799952033006,594.767506995291,7301.19502632055,7768.23878218159,5567.29696963711,344.538378110236,540.275785414729,502.245449651016,-7.70033519815752,5.29441250685159,-16.1226285837465,48.025460377753,16.7674828050076,15.4127449794169,907.299453937017,1238.41548156147,1093.10772174866,506.528536176793,610.508798324756,575.987016165991,6.48938262659522,22.747527033398,0.93823435314971,14.2475200452554,10.6460591038585,15.9342453584104,69.8528062360074,72.5741836188854,67.6565094816342,-23.7911657767227,-23.9247135506257,-17.9282296091733,-14.3174929137294,9.47949761504333,-22.0393419454376,320.547792239966,295.542147078799,243.254530545062,-26.4088142423325,-37.2989211871309,-29.1929035892335,-8.62081797872816,-7.74099288954676,-1.31245091125038,780.163305241826,827.06548940125,708.613691713483,58.3109862960464,49.1925730030143,55.7017240991427,-19.081226711146,-25.6767052013502,-20.1643989113099,-16.2558189874017,-21.4601369214006,-20.960313831466,645.496747502188,598.938406146643,533.994575473062,-12.6824725973756,-12.0690809067801,-1.86674352551927,-17.9922622256545,-4.3003266134001,-16.2276394982609,282.177844103882,270.533942294449,229.875491502897,604.99656823558,669.841942929044,674.926807106553,-52.167158250204,40.0845322025471,-4.05405094073467,-16.2436492319475,-12.9719279602741,-15.6140583813449,745.104711849084,677.887610823902,466.9815493266,25.5094439680979,21.9304861258515,18.1267738565621,7.38483207474746,12.6812976493275,3.87670522842836
,17,16415.0559034688,16014.1188497611,15570.7859285205,700.050373696939,638.035014204468,588.705314774068,1005.21171277485,893.761624318688,1212.8439383966,1558.28357629526,1338.37310557922,1119.6355798154,9979.08235950571,10472.3789260116,8340.3469514949,639.992368534895,998.876164544097,1000.09231707604,-19.0625259154313,25.8460286341478,-4.84249604504112,119.897913574827,84.3140170062597,72.7150526063178,1629.17019985644,2189.66106144766,1921.27366375448,928.398654302806,1103.16228858552,1147.5869860085,31.973834009711,103.863382596383,23.513993626696,84.1232143732905,73.2102390369064,67.5557322236909,162.52684833175,169.383340480427,152.816655638246,-20.0371758096762,-13.6334463471212,-9.56224570271115,14.7164985521558,21.2282394698068,0.222418566197121,662.019292223173,609.358313517791,512.057319456544,-24.7626600130798,-33.0898501702259,-31.6150259223132,17.4152648008248,14.999450344596,11.8077823520534,1393.01098536193,1494.52468272006,1336.09613079281,155.802356637181,145.34894682943,135.668370478867,-28.1348290146861,-32.8334671987595,-33.0884432548173,-15.6692980236903,-9.72191401150667,-23.3465929291915,1220.80984618755,1133.45946239082,1010.39694052448,19.426747540454,17.5123434653569,10.7009747427219,-13.3545172539425,-12.0678365663161,-16.8473876795797,566.230350624855,539.525900484332,452.493376224063,1166.19033447854,1282.48929450013,1255.31550150668,-55.997528679015,119.717183075441,24.3652248288181,-19.6390740105571,-17.0911674109302,-14.9512466698861,1258.30513084796,1157.38023269741,863.977874111317,85.0019537988119,100.287861837607,99.8400753841324,47.5650975085691,48.3197350647506,54.1391286826747
,18,17072.7793147305,16696.7090520924,16029.7316763004,1180.39332560816,1113.28267688992,1028.72495237503,1556.52914346862,1481.43389319802,1979.80702647373,2670.31221562154,2341.28232201502,2002.28206087276,12317.579623959,12793.3987966923,10962.4050624819,1047.6400646573,1660.99740460159,1674.58894762375,-1.72885921459783,66.0830124954482,-6.32093237178469,226.140936536897,230.061500782067,158.963931643767,2742.23996473945,3628.8310622349,3195.74346002202,1473.0842500397,1829.50552733066,1861.06071584119,87.8350491222627,235.601176395787,73.9795118142156,192.185250558075,152.126420643098,142.987634653614,314.542394948255,318.646846420929,308.357408494095,-4.6653815599384,1.73768439089235,-1.44789031605706,50.7675604410924,45.1388897825436,12.2833782476082,1163.58925395052,1098.11983232395,959.731731551406,-14.6182916940297,-25.0668302747299,-22.017449053812,60.2779035019448,49.3528745907151,44.4736409081934,2259.51648875591,2393.50590702081,2250.64794249541,326.033158190625,322.751242923379,276.97396641872,-29.5942183633324,-39.174368950632,-21.1485443103411,-15.3952882164904,-7.11399176308259,-29.4662905840923,2118.07744123842,1979.01383618286,1748.57718337765,92.825485545919,63.2635065497761,61.2773553212537,-21.8854196492011,-4.82015044212221,-24.560257587741,1061.39654835286,1005.16366303384,848.870575582652,1902.73594843982,2082.9402111834,2101.32529713135,-67.7823274120074,243.109116111282,60.7073723272415,-25.8360581342104,-12.3667394483628,-17.3332344067576,2023.91579199691,1852.6752464817,1473.95602182756,202.662314552879,249.623246002,235.085615903154,126.157493527691,114.900608282381,122.246231960745
,19,17531.1472260659,17174.4663769819,16349.9683609263,1956.61422826235,1959.77115577742,1791.33092292203,2353.08666826494,2358.60767305259,3115.52754858342,4404.41633724403,3961.10648739232,3449.24912997971,14135.2019172062,14564.3028156822,13219.5970362859,1580.61599908736,2641.33101383624,2730.0318214846,9.15235333840246,153.300542313124,17.7286396676018,458.389706570293,478.539197117045,346.802763848933,4578.39900276861,5985.4776686943,5313.34181894225,2242.9816794398,2859.73744890925,2958.17767205673,190.1592723735,539.086697849214,168.553658043256,428.381076573089,343.473452612483,342.278064888609,598.26003817835,594.718945876391,573.127084831245,22.0946717602237,18.2725586739234,15.1572785238232,125.633523310362,112.730962702779,71.7542049879257,2302.07421627301,2017.18147002906,1797.75490621891,-6.13947999524862,-0.0563878919019771,-1.88721013945542,160.152105101933,129.728726051344,114.611642876506,3426.94132252633,3626.08389985014,3657.2024311818,679.69807410974,643.089217495493,574.871091998572,-21.2482228848621,-27.6211878826498,-30.7341179538098,6.30052872956912,20.4494057399033,-7.02526787717215,3475.78526187513,3297.62198424239,3007.85221097908,223.096569612441,157.453025651292,143.704252620138,-26.2772335321379,-17.8521052339147,-27.2741243885712,1930.43004313437,1833.74192150998,1558.65397211975,2954.08783899711,3222.09601070482,3335.83300310375,-73.7350110373427,476.281121115509,157.209911587125,-25.13141924911,-23.9938257456897,-18.4926728517721,3004.8371536746,2721.29526861971,2431.8256296393,432.445299017045,521.751432471357,509.426212538801,281.195647250715,269.884428651231,284.527119389465
,20,17870.1790440309,17518.2687463954,16607.4344514684,3042.91768899645,3246.34775025812,3003.62434438211,3324.22293617259,3452.24185371645,4567.0942838331,6743.78779320844,6314.36253676159,5747.02944851242,15437.9843219987,15814.788910486,14941.1191949098,2253.31839611425,3847.21357072968,4035.82483774443,52.8843918508373,324.512956904192,51.4732548903003,919.462252516723,1005.84759066049,731.412897092027,7327.67714027996,9244.12439095053,8457.92109062601,3172.2388528445,4174.05056299983,4348.32553198256,414.384478463498,1095.10495569895,371.834968857082,884.489038463762,696.182656606859,709.932664414299,1132.57397493107,1123.48710648301,1069.27882448246,79.6448736608882,78.5560506864631,54.4862784650913,288.508800342133,254.679561341732,204.619076728271,3673.52109237889,3553.89385382973,3167.93832867829,35.8623449130118,43.0325697534608,34.365483467288,355.912841982497,292.081641620646,256.458379071775,4765.17998724498,4945.63060075549,5509.79959562731,1311.78844956284,1269.51641839185,1121.39487854961,-10.4795704140724,-23.0688019228382,-24.9724324102772,54.3613057274442,65.5829335516537,21.9560146211525,5272.82844212264,5138.1294854487,4900.7870215145,464.12507991596,349.995640200269,345.786893303721,-29.3031744527971,-21.5456164999914,-23.2916923137154,3432.98960882805,3253.28066324823,2814.95725322379,4273.66241857362,4591.3894283315,4890.64369930667,-83.7285185420833,910.675345054932,334.115103762228,-26.640680121327,-17.5590897315351,-18.015766289278,4135.10255082732,3690.38836928647,3745.84100580096,906.986656124536,1063.17179063248,1019.77447058075,566.998861510157,552.117789392086,587.520735382504
,21,18105.6309791956,17791.9782751257,16796.5925135034,4127.49479576706,4777.20732142728,4478.32608532823,4110.22566427697,4444.30163014556,5836.89740184939,9029.76579277848,8774.56579326642,8234.97667091292,16301.8273501029,16640.6219966831,16098.7815264608,2823.38380197124,4823.83429497256,5156.84446422659,115.436511845835,630.451448134623,136.020776789002,1689.72054922068,1876.29601645978,1397.49849176121,10105.9041370998,12235.2051154399,11450.407632384,3953.37033210602,5329.39899334798,5484.30001683559,813.5587907472,2046.43977321882,735.913211719053,1653.97076128008,1329.88197528772,1355.31990202862,2042.20123389058,2036.19471251663,1945.78823407048,193.208750567069,191.558258763139,114.751913674616,574.782364788377,495.360014089399,434.480897035118,5720.81886542846,5584.19005776807,5081.62077220214,85.3142397021165,133.15965479598,104.382303372195,718.205084817311,576.369747273716,506.81228454917,5579.97228339233,5695.53195759903,6912.84405882817,2390.41697385547,2310.69489355992,2036.84662000086,-10.1155670973494,-20.9959973130581,-19.4347470813136,128.014807362155,145.778164298679,91.8647671454364,6698.5232984567,6733.07666009999,6897.95790382975,943.268923912802,719.479645300552,673.935069254956,-32.3607257418498,-23.4767605109091,-20.3050009703311,5481.04198885928,5195.83730479025,4639.0854599811,5357.9644304397,5452.02207042845,6053.78936353205,-82.2362222134097,1666.4419490013,646.479096289067,-25.2693601946539,-20.0428564887779,-14.6080203960992,4957.52047767991,4417.17109024492,5206.42092326215,1702.99697268158,2009.55286185933,1903.37353903122,1096.24064084394,1062.39032764546,1140.65148165006
,22,18263.5422252541,17966.4254209646,16902.5683165922,5005.85829214829,5991.27594543574,5930.77695756469,4577.39686543558,5050.60195532003,6513.04962243055,10945.0732535838,10910.5453147148,10456.0410951727,16828.7322215215,17144.3110874342,16813.8959411639,3215.21652845562,5310.8176631482,5715.88544249393,231.663741480025,1180.47122352974,283.449361393024,2920.33688907311,3277.07839027962,2498.32973688957,12443.5870497113,14641.2990251888,13961.1916938191,4367.38158706011,5949.11977304402,6078.31210323223,1497.52175027591,3538.43016325769,1393.84903698059,2907.9772143441,2376.34956762418,2434.84856455791,3542.97211941549,3520.03212352077,3377.21755477795,392.832919878191,406.35280553716,250.639681666856,1086.03137892289,957.131323730423,828.651377294542,7961.54243315067,7780.08728732505,7173.12318485589,184.288615499544,286.37693460047,222.175967769486,1359.41683530301,1089.73979081208,944.73389948831,6109.11827270858,6149.69242918309,7874.42130077192,4024.89828759542,3942.58627884168,3509.24472019966,4.19224926919378,-12.6847955256744,2.98689489899698,287.155903662802,298.32690990819,207.209915503373,7679.58513882544,7855.97759244125,8230.46397098282,1738.35837168527,1360.76819585203,1284.3248982475,-30.8388952837613,-11.0694034091048,-23.5353708342909,7478.98559353479,7119.96208431488,6875.87526422964,5847.85684729206,5983.11802860231,6822.56213180523,-85.8597918931982,2908.78668437126,1165.76289902404,-27.2043889923007,-26.3226329551717,-18.3739749109909,5297.5850709682,4699.18618183584,6172.64733276166,2999.08836478661,3483.71451991282,3355.24533171368,2020.25587143512,1943.14731040253,2077.96297407848
,23,18384.2964097384,18090.3331946655,16957.6218383328,5413.23550638657,6908.2175090443,6699.52097656499,4964.02917221042,5537.63453425836,7033.1170227509,12401.8591705649,12596.0245264441,12263.9792168649,17177.882711821,17462.5083005325,17277.7532754667,3419.21642854841,5720.29453989298,6154.14465246855,427.267928075888,1986.4083051421,524.603300492586,4563.08373040116,5131.36269544605,4041.70562809883,14197.1014353327,16342.9951100076,15795.3469841056,4690.81450347146,6409.63240057534,6500.29127236712,2549.95124186054,5245.62321297553,2379.16614132559,4579.68662603166,3891.33042217587,3954.12857341271,5579.01493151797,5547.56778324926,5322.4926047996,698.411978596057,724.380613730114,444.674626633229,1881.80744659876,1694.280277912,1480.60336457532,9889.51420086597,9723.65504543171,9051.56431591614,334.300444924791,520.968011599344,404.929309700893,2343.07803108928,1872.13854075473,1654.98456784171,6365.8446099645,6467.65759172433,8381.42917691368,6006.03731195804,5871.37108837827,5348.84141352188,31.0531678022007,9.80039157318151,41.9152037150061,549.774587888672,547.781181711445,410.135734016752,8208.83108499247,8486.35413245743,9125.18920917046,2968.51588900895,2335.08705755788,2210.77082901565,-26.33186633879,-9.65044002764807,-10.1580185719831,9012.31690195754,8603.75166074069,8483.43697225903,6169.24916725713,6212.39184750259,7185.11923300315,-87.8039684283503,4667.59576621009,1959.67441709142,-27.116806662536,-18.1124652840281,-14.2295422795032,5555.25843701642,4935.82909636655,6914.67432281992,4842.25017211576,5405.05080604723,5277.28913839717,3395.79669366891,3273.7964417678,3470.81139302073
,24,18462.8051439884,18167.8714367663,17000.2385033868,5801.86470308352,7510.91806350126,7335.50518004807,5247.80520458859,5874.86804729214,7373.57633687608,13405.8695330974,13772.7936121646,13569.7771258493,17405.9449265331,17682.2791226435,17591.1590909321,3694.79355491391,6035.70037461251,6450.49140148039,807.116823957485,3313.74991746044,950.452513296907,6714.11843383456,7552.0010808324,6244.66936281947,15388.5329701625,17470.121184739,17023.8206907485,4914.11181090048,6696.85744531789,6741.1360227154,4196.98009140136,7102.12484342477,3979.44367884295,6749.44920560594,5984.40540579749,6080.30709565659,8560.91781944539,8423.41280281335,8130.33132015859,1268.07738942483,1323.32396465291,822.042482370373,3241.22750494664,2942.658802054,2582.24731613434,11337.119864722,11281.450955449,10565.615470791,598.505475356448,949.052999141109,744.235484053448,3983.16226389852,3223.41384500831,2887.97105504463,6532.78009563825,6630.47761196563,8618.79398753555,8172.02099887086,7987.42666548557,7498.12112171123,88.1142992845826,45.4223358824747,106.401457435449,1027.01806119083,1011.80964814612,788.939404104487,8505.94460929801,8819.52051209832,9587.04807694686,4863.54775163506,3956.96822598311,3765.30492051597,-9.72415494247252,-7.5689166866523,2.50894002351379,9887.66724047839,9471.77087787463,9678.69151883866,6357.04457461714,6328.97137704266,7336.17250455183,42.1321229001342,7054.21630279815,3227.06727653809,-23.8912061721248,-8.73897894686888,-17.0178011183289,5746.53426473338,5150.23568729896,7429.30416213701,7263.67748931476,7674.89075081988,7654.5140396014,5431.63243045647,5300.84451828682,5560.94504921588
,25,18547.9370190536,18253.4373744289,17056.8950903866,6146.52079695687,7974.82393133206,7817.43728587567,5499.1923280743,6162.29556148035,7667.76405893475,14138.0435302497,14597.7969980365,14509.7712693936,17594.8332374064,17850.6336822328,17830.4936642637,3963.49660851998,6358.86591929045,6776.45896955762,1467.0352296196,5292.91819882443,1724.06882084907,8875.79310876416,9877.14373737502,8691.49655195861,16247.1080230516,18258.5269071635,17914.0370867423,5116.7033414569,6951.71616920191,6944.91361779052,6486.00294099113,8718.53921926853,6290.06581878104,8910.93473526475,8438.40535830845,8379.76770699762,11516.5743457289,11244.6854289097,10885.1691696913,2274.95597077128,2371.49787551565,1488.71970258027,5340.11077133827,4943.78509295764,4406.20840062208,12421.7745286146,12423.9232589377,11707.6488508177,1056.94708325179,1734.62176177972,1356.34840340523,6406.63188775728,5328.88100947846,4858.25417216432,6724.5932003307,6812.06666248427,8846.86364273301,10090.4311546376,9850.50358523915,9438.78543231302,189.498207970069,117.45562913632,226.048307202985,1903.80760909653,1864.56426939853,1470.36429748368,8810.92759256504,9125.76782475205,9936.93816161483,7400.4310617843,6296.65079710188,5977.32753770694,4.64664085672393,24.0998814238492,35.8437596291215,10353.1919714411,9967.63415013799,10426.1318333542,6540.24556233106,6491.196348217,7498.94446339351,-29.3956283826901,9694.57884651306,5106.12248114753,-15.3628276327872,-1.65503501567582,1.20996292633299,5976.97454140517,5364.07273701164,7878.33274966164,9629.41990902025,9678.09585867046,9802.63919906937,7977.22267647528,7906.80745340171,8062.14084178118
,26,18605.298235709,18333.1211482717,17107.2051754685,6417.98554428349,8337.67568761363,8182.05575541048,5670.59031285468,6373.97322671058,7866.27112289684,14616.0855722227,15150.3451662124,15137.1898929485,17718.3314975661,17981.0588975147,17991.9068543064,4183.85241889917,6608.55732556212,7016.02663351099,2656.88239964802,7518.01189366747,3109.23995279903,10682.8497472421,11820.0328072516,10821.2756152528,16843.8672321352,18792.2544090182,18501.4714014656,5261.82899577073,7131.12580900122,7089.75576634616,8781.39090801851,9830.73202036585,8777.92293422013,10668.8534958404,10559.7702808345,10308.1776241635,14101.7547232003,13689.0099449284,13273.4795119848,3984.62551676037,4141.28263722813,2671.1391829364,7954.34954175293,7676.66618591367,6974.74672448857,13128.1373644159,13178.3330803501,12449.9120194851,1915.94654039359,3139.53825892667,2483.76622146793,9171.9546946603,7973.39126125938,7608.76855173595,6864.61627485208,6891.21258007314,9030.21392722248,11515.2939690165,11227.6081376579,10951.2774027542,383.333570553124,251.027565776616,441.925753510229,3444.04767502052,3346.98532346948,2700.21661391928,9063.73625970684,9385.28141497837,10236.7790128191,9796.14423154957,8944.4983828515,8400.33465751849,50.6246606639579,66.7489833419313,98.849134734467,10600.2049954368,10249.2330341903,10856.0189355128,6712.39277148305,6634.8088458034,7662.24898741414,176.364053410409,12005.4218629346,7458.65451757909,16.9784837795605,43.3408854618565,42.6804068015581,6163.33811060787,5545.5750064866,8250.68048970762,11541.1737143202,11165.3205594432,11428.730721224,10214.4556866404,10239.1647251556,10247.9538785241
,27,18640.7485897826,18365.7131679174,17127.0396035674,6569.13976620537,8552.53409227351,8402.25266842368,5764.11146107603,6481.4107155068,7964.25826175984,14900.4003556858,15473.5101514144,15512.234102955,17794.6325697443,18050.5321606042,18098.6991011245,4325.68458696477,6748.39791318507,7165.20867756491,4405.58161310969,9297.78728519956,5040.66103598319,11957.5412337936,13156.7658554096,12385.0301637672,17219.7618426709,19129.5451630707,18872.6264129614,5331.8065771966,7217.34566998308,7150.08040388963,10526.7067741158,10418.7939104752,10699.1929149622,11825.3055721144,12075.7676992351,11633.0659325559,15982.2075533253,15431.0621780774,14964.1087774624,6285.95194986132,6539.18720397663,4442.69005337295,10190.0152421667,9964.7236553882,9301.33040638273,13538.0089942496,13612.6439330771,12864.9709126223,3225.22434900562,5232.4204991898,4215.48352414118,11386.5385699193,10191.3216114175,10010.0642750354,6926.71629502329,7011.4362589941,9129.6201379006,12369.1912909369,12042.6888614214,11870.7291964631,685.558071266891,469.923792173438,811.216269603692,5655.88651056708,5501.86467188713,4584.08313739968,9216.28601942876,9545.34886877761,10430.2304358191,11530.6557988447,11033.0368543551,10277.4135952478,120.267739116465,148.704096020875,209.924002560469,10770.795508651,10446.0713847512,11143.2616975731,6796.08405557669,6701.19276776277,7756.99157693308,320.418543076921,13756.6902818434,9624.10294095449,53.548228018527,89.9676282492737,86.8971570170243,6275.2548959759,5629.09201218057,8488.4068451645,12793.5089652256,12028.3565066184,12404.0065695624,11809.5329613084,11954.9593876209,11804.4497785034
,28,18664.3795673578,18385.5069330486,17145.2035917304,6654.9216598163,8689.03977210341,8549.6241148344,5831.84639260336,6553.80104316166,8022.6051447606,15082.9654702715,15707.1282598865,15755.5964242442,17844.3077280555,18106.462286888,18172.732502537,4415.55582816114,6833.42487460349,7256.07538617508,6400.66597723876,10578.0525722584,7148.28645425187,12767.6393299461,13980.109044943,13420.5602727934,17476.0335781632,19365.88092131,19103.4925449202,5368.10850778267,7248.11660716574,7175.93804297191,11677.3693250154,10723.8510540774,11994.8839278334,12521.2006936984,13040.0732701977,12432.5148750652,17205.7837891511,16567.8809494748,16078.6895928118,8705.8542552238,9077.84779060135,6527.39310690886,11955.3531081134,11879.4435528994,11290.46213723,13779.1829435654,13881.56156246,13113.7327127294,5005.00617075786,8077.94056814581,6440.77138250799,12938.1197597882,11865.6196685306,11989.3756880003,6940.27498794605,7116.71187283137,9186.53840892653,12843.7615903055,12491.7963164377,12384.5628478743,1145.69107012909,807.657160421209,1360.01818491445,8296.65317278772,8159.48287494359,6967.90084360757,9297.44276403137,9660.3595212753,10542.1580276585,12570.5093853174,12460.2124200649,11524.5217648823,228.714431939489,275.811150610608,369.312100285338,10906.8315096985,10581.6931683442,11352.5752576757,6861.2105779067,6741.59378034631,7814.18212606056,583.049161179115,14949.4950892695,11519.1221814077,118.241971530747,179.412180386042,179.378421542902,6325.47475521618,5701.07138703567,8632.14092066002,13536.6338357125,12544.6583544814,12962.2872497581,12747.6740946519,12999.9303887004,12723.3130552251
,29,18676.3060278156,18389.71091543,17149.7392388912,6691.90505643913,8747.20858591722,8625.12004076867,5874.81193271585,6576.29499935595,8054.25385158837,15194.0447253868,15832.5781377485,15914.4156696239,17880.5348640289,18129.4392472998,18214.7880520926,4453.90051722343,6877.16271243473,7314.87228225131,8725.86301080386,11305.6915074835,9487.37414588074,13263.4269534819,14442.5216618987,14016.4618747986,17630.4755303694,19522.1244744605,19268.0404599348,5366.32334645858,7245.00940858174,7162.25437569317,12313.3504067411,10914.8701548332,12690.146588421,12925.8498925923,13585.2355567596,12859.3053737673,17992.7409173076,17290.9406301212,16790.5253329613,10779.1351035425,11269.8128600694,9034.16716641246,13052.8608249797,13107.5844772084,12631.5640804013,13908.6359436711,14026.9027344335,13241.4850873053,7744.70107665889,10919.2814571467,9540.39263111679,13803.6087010111,12850.526631102,13241.7813439497,6926.44290090261,7126.65912749219,9199.78064591521,13102.8967767814,12734.8277720567,12631.527503612,2123.07100526844,1509.44323397451,2522.03265198553,10693.7687632659,10596.1985845919,9927.83089168398,9339.62901183961,9716.49278182969,10594.574731391,13070.5100125666,13235.9033365848,12173.4326271591,447.802982942122,546.783614613641,692.831097492757,10959.0763762672,10649.023873464,11459.014788211,6872.32328928998,6752.28261957389,7817.64418960527,1108.55906246512,15714.97559938,12951.9832961558,245.550789722691,345.54193505754,354.74158814732,6378.03906425835,5730.98098439925,8696.99932220626,13988.0039733215,12860.699622458,13303.9805374981,13189.7617643779,13515.3051877691,13156.811448497
,30,18704.9798263356,18419.5211917518,17168.4573460566,6719.91167933025,8794.31460779577,8690.80757804224,5902.34230023256,6603.52520743813,8069.69605983229,15277.3455366023,15939.2896238395,16044.4500057146,17916.6282248878,18153.8651674412,18250.5724031895,4507.3778795999,6918.36671167689,7359.43996994675,10488.8713208751,11783.1644887984,11227.5000597871,13588.5593635264,14753.4147234485,14393.9356148945,17773.5657798281,19645.0387926386,19404.2733590531,5360.84487152819,7245.30242936041,7150.83146872942,12735.7831595461,11094.4895353666,13142.2423464281,13215.1632828078,13970.1145667991,13149.2036202273,18529.8962507035,17804.7420075793,17292.9481764533,12321.4581419906,12910.8096466576,10999.6128543922,13753.7513804038,13891.01028554,13506.3595024168,14004.5838076528,14103.3056066093,13343.0633904256,10317.6099915445,13563.6983504753,12235.4269335952,14333.0309271004,13439.2881266619,14015.1192146706,6912.88533742032,7112.46972786964,9208.30277450498,13274.7267683171,12896.5121391746,12808.1103403027,3479.32996228626,2532.71607664919,4128.79475847255,12590.8607513229,12557.8057863675,12348.2726693041,9361.95655597205,9753.24316285098,10652.0818624442,13409.3389062692,13704.2959039537,12566.936552481,768.890729893422,947.65884084421,1172.8013142835,10989.796192727,10692.7997548423,11528.7239514383,6899.94037901443,6758.77785216403,7826.92489778951,1908.1277658682,16243.1287207011,14015.0705404709,442.02855473336,600.027925974786,622.296310676767,6403.31021244631,5771.76571669399,8759.84048211754,14320.2495190544,13119.1920622944,13580.9587232153,13467.7357986252,13823.0557543185,13426.2903435766
,31,18722.7638124684,18440.5546124986,17173.5065756366,6736.16268451257,8812.31278797377,8711.3788395449,5899.60745519328,6601.51149256853,8061.04991181326,15320.709088951,15977.5876786964,16116.9770914296,17938.8356579294,18162.4765815516,18269.6194201929,4536.02564037641,6940.20076236919,7382.51498422339,11629.1314144019,12077.760619703,12300.1797268077,13790.7183224738,14917.9676928868,14603.3721453841,17872.0640554489,19739.0277307709,19494.3341273448,5340.88931259029,7230.19350138222,7117.72814941003,12995.330555089,11206.1970199094,13404.5676106794,13395.3738108062,14218.8980398328,13328.2695843628,18887.8576379344,18138.8716446843,17613.9317022321,13209.9187842146,13865.5722280788,12308.2690533222,14131.9496492668,14303.5279962832,13976.6634185044,14049.2513338547,14143.599379687,13375.5675856348,12565.6743396636,15527.1941183409,14354.9502182189,14647.4746954275,13769.3955112403,14441.7837330454,6884.76800316567,7077.96346297774,9188.30001747755,13368.5470876362,12974.4425577685,12904.7474389136,5630.17587823703,4222.16484519964,6573.13331209746,13719.8189618167,13756.7503716845,14034.1335055346,9366.43723115826,9756.65755378585,10676.5441724312,13625.9825295509,13981.1528736044,12802.1101058184,1345.37835443264,1666.20450904937,2033.76915522345,10981.7550879313,10684.4454179239,11549.0256122382,6906.43420269233,6750.46243952003,7823.09065258041,3234.66994749027,16581.1799712181,14736.3647946072,789.359886532302,1037.39189018361,1100.93257790857,6425.44382489033,5784.13589720656,8792.81122321908,14541.2405789099,13277.2869654487,13749.6924149119,13622.6042986083,13996.4613452059,13564.8897412791
,32,18740.6352571582,18456.2417873017,17187.6123246953,6728.5997470345,8814.52910806768,8707.6123029524,5883.29836147904,6577.63718229922,8043.34800961674,15343.5446534592,15997.1649521625,16141.5905948595,17946.1002819983,18156.7177996375,18278.1682731949,4552.11840384082,6934.03893902595,7374.87989835626,12330.9960133275,12299.8195481727,12939.6477966105,13915.6040743547,15027.478390567,14723.6359966285,17945.829442452,19801.7281879023,19567.379298161,5317.58319315738,7200.34340170024,7074.90152135561,13161.2646287409,11278.2952653647,13587.8572951976,13511.3396786276,14381.7512463692,13444.9575451331,19150.5292897457,18371.0079484283,17845.5566542152,13771.4522206936,14451.1156890861,13119.1894288434,14369.9292126572,14555.3643367867,14262.2855152485,14072.140020236,14164.7122886096,13397.3323909809,14288.9248541485,16900.7148057678,15868.6441621629,14872.9038426988,13993.0041723149,14735.9824566082,6859.10770652206,7038.43796452541,9150.43217225338,13420.2039204847,13009.7938342652,12957.9737482874,8632.93065148019,6947.60364313809,9643.72749456352,14333.3015448061,14427.2650308027,15045.2018579581,9348.0940844492,9755.50697503046,10684.7597288665,13797.1791968711,14186.1844923317,12982.9521112836,2431.84971182422,2998.09873830728,3626.89031757107,10972.3250083151,10676.1902136786,11553.3828217485,6900.56453314194,6735.57324987246,7815.12078911368,5366.41792043714,16815.8162711616,15238.4015369567,1435.59141427802,1894.22060751958,2014.07321643747,6415.27971996534,5787.13493663611,8802.55127055341,14684.5782460166,13397.7480345982,13874.1962825314,13720.8647859512,14103.2837847407,13653.0501002318
,33,18747.4179719425,18458.2411528382,17190.7438484099,6716.57880014859,8798.48627727583,8704.30011777765,5878.01661550151,6542.6017850217,8028.05039056979,15353.679198109,15986.435808642,16142.1975231706,17947.0017527485,18149.5994356744,18281.6613354671,4536.23734393367,6922.42895252278,7372.69298692554,12820.8201251468,12475.4449640327,13373.8364105319,13987.3706560122,15077.0891552061,14803.8051732426,17999.0100574158,19851.2469475301,19625.9088210434,5287.42399344415,7163.28484010438,7026.76481570873,13275.4334480914,11330.737554463,13695.8762960529,13608.6618045974,14497.0786988677,13512.1381954231,19354.7700537091,18541.008008326,18020.5906629343,14181.1725193385,14873.514155365,13668.2891130289,14513.526047731,14695.2857140715,14430.960370344,14079.476726095,14170.6802576166,13390.3852756931,15498.0185753996,17811.6063252271,16885.8788511882,15018.3667258771,14148.5143280642,14947.442870422,6816.92907488476,6981.28890646166,9110.06594761033,13450.9976241286,13035.2154045239,12981.0516647673,11386.9542999981,9671.17996075747,12329.7649109971,14691.1274595079,14816.7302317093,15620.8562625473,9329.06697047369,9753.17124443705,10670.5064175998,13919.528227219,14335.6584608727,13104.4530581628,3913.4765921485,4802.6922391367,5697.99463063087,10963.851467364,10658.7087889751,11551.576738982,6878.67300494773,6721.8186136241,7801.11947455041,7686.24943021068,16956.0865686492,15570.9629834303,2379.13248065078,3106.48740328357,3301.59295617515,6420.24986494345,5776.82434065219,8805.19507076804,14786.3794135327,13476.7696237249,13952.7753967347,13769.56510428,14167.8834211845,13705.5835997041
,34,18748.6548821956,18464.9811431685,17191.5315855732,6676.20119277944,8748.82542588113,8684.63156734962,5849.24269863584,6493.67597500441,7991.72702666112,15328.0255368168,15969.6979127463,16111.052122181,17937.245374435,18128.7009608542,18279.2589880709,4501.39592524907,6878.28456319095,7329.70867864578,13113.1138082229,12571.9705036538,13629.0468249132,14015.1329610428,15100.1093481656,14815.5184917467,18026.4080243922,19864.5112015831,19658.5213934239,5236.13606946222,7106.40368896003,6959.92256312061,13317.5635353317,11334.7196376461,13735.2590226678,13633.8447313247,14527.7877879366,13517.1053303279,19481.2299332468,18648.4623804388,18130.4811620426,14439.4086033159,15138.8112221428,14019.4978424403,14564.9846596216,14741.112500073,14502.7693911031,14054.8939897211,14148.8978799946,13380.1780817854,16258.7959983533,18374.9578736389,17504.7902271422,15070.3195744962,14218.8678350211,15045.7309638764,6759.67115181634,6907.43811167925,9049.17737704062,13436.7533146007,13019.7281755839,12966.1106595008,13660.3331937989,12167.5097318401,14404.4041716847,14879.0822114671,15024.6299834251,15916.3551858944,9280.09300075811,9719.59327223219,10639.6037133598,13974.848325017,14407.0187691768,13166.9090900713,6207.83615336555,7442.67327372641,8634.28466941335,10928.7344319324,10625.767606156,11521.5408730631,6825.20551718643,6698.42514204795,7766.67425913561,9801.05733004748,17030.0862579101,15766.8936940221,3971.74496061097,5094.14923236291,5380.11303466049,6394.08272914372,5760.77162884799,8765.39590170277,14833.4445932499,13506.1048182478,13998.925557709,13776.300443471,14176.2626632719,13708.5237426814
,35,18737.3531206371,18457.5835859203,17189.0743622951,6640.84275860772,8714.29310403969,8664.75478253728,5828.81198517765,6454.10927715873,7934.22216063556,15290.6567330789,15924.5811362344,16080.9009254047,17921.5016729963,18127.8802221418,18281.7255908156,4466.00011389667,6837.15986190544,7297.45740292977,13351.4188737231,12666.9331517772,13830.3411679498,14035.1347065285,15114.2255351264,14846.3821626854,18054.3926534201,19881.3344298719,19678.5543166195,5188.13162638735,7057.52444201663,6900.56481480172,13371.7772961834,11350.1414995109,13768.9155443838,13657.1708171001,14569.1215929217,13538.2260627346,19571.5032568664,18736.6518646873,18213.2437931023,14640.9266533427,15343.8421443642,14301.8703433307,14600.6166402185,14780.3752953745,14539.5400577455,14027.0277598721,14119.5893524287,13363.5045751208,16798.932431403,18768.1322803141,17941.7805119768,15103.3965689805,14259.2512004766,15124.8009420921,6705.2934926446,6847.0146284711,8993.78280418504,13409.4016865101,12998.6975750751,12949.5304622281,15376.6992269232,14194.9432506847,15908.3672139219,15004.4957888564,15161.2060030997,16130.6128429625,9231.16788268819,9687.82395150019,10604.1286532378,14034.3686232575,14468.0968698491,13209.7674196589,8973.49410905158,10271.00689385,11388.5040441653,10898.7354479328,10593.028096165,11501.6553127524,6789.95516262513,6665.46520430673,7729.34720036554,11451.9631326831,17068.5440313638,15895.4927622678,6329.2929283224,7836.19773482625,8075.15800437006,6367.73524932775,5733.81670152691,8740.63827594816,14873.5693234952,13533.8229500072,14024.1150524138,13784.0932805665,14177.7996561128,13709.5691300153
,36,18741.4955852563,18454.8093101082,17191.3397545826,6602.77253704863,8670.96105862251,8639.72556709412,5809.81996514659,6412.51682104572,7902.97833349593,15283.8749328598,15879.4614644824,16043.3808003285,17924.7980572218,18122.4595432501,18264.0927415269,4432.24991562618,6799.25841724357,7258.37832835639,13494.6655984974,12717.6374758029,13958.3922463058,14050.8457652563,15111.2572200286,14865.5631848037,18077.4179051084,19894.8109618487,19676.4268842522,5140.22681221284,7005.89143577461,6842.86342788515,13391.0712149344,11344.4051636477,13787.1345108207,13646.3953432535,14584.0921481497,13556.70994034,19630.5275049037,18794.2967235157,18270.9814871709,14769.4940440619,15490.2869593615,14488.4123818753,14608.7899783276,14793.7634081584,14547.8251611978,13991.9010652495,14090.6531913683,13352.9855527493,17166.099463617,19037.2987675018,18239.1676936602,15120.5154001958,14283.1985243791,15151.4410896966,6657.63788007414,6787.9235561953,8939.20683164538,13366.9791697162,12965.9987148503,12926.8245379475,16520.298109513,15606.7663091643,16894.8650544375,15061.4392635057,15229.2299429678,16244.6887372968,9176.70280244546,9642.54581826307,10571.6697034874,14069.3181636632,14513.9447148083,13247.8779663393,11501.2915878248,12708.8374844433,13725.4120253882,10864.8847344741,10568.4476897853,11473.8138718603,6754.70869668296,6635.74078057702,7689.16495703313,12468.4860656415,17095.6862803199,15980.4521819036,9237.63501841591,10653.6069858828,10578.9752590171,6334.93163190729,5709.23057924467,8700.53585078717,14904.9258195579,13551.0747013889,14041.1729844673,13779.5776750946,14167.2826359383,13691.7433163119
,37,18746.8305863957,18440.4334572668,17189.8050500193,6564.5475531669,8627.45448973619,8601.15728330876,5779.45496326305,6366.78272075156,7848.96465633223,15250.1097831319,15824.4008519019,16003.6881999752,17906.5404980506,18099.84402461,18247.278278586,4389.16223697191,6760.29166411665,7214.99063729589,13598.8358717326,12752.4517355919,14028.5470713166,14045.776347325,15101.0970833773,14869.7905884234,18090.7732190424,19902.1792695493,19674.1619911039,5090.01496192756,6944.39797594755,6780.28494449977,13398.1545296272,11332.0202185742,13793.3110461948,13655.2881679412,14592.2645002082,13558.2508297486,19676.6477803865,18832.9974113143,18317.9565769595,14861.8149046641,15582.4320357127,14617.1947868595,14602.4526760591,14782.0308427162,14540.0152467129,13953.4542000312,14042.9928611948,13314.4557400534,17426.1691328101,19233.29478934,18450.2617113612,15128.4008736376,14284.3398959887,15165.193477373,6606.91030192525,6724.57768121835,8880.52616615808,13322.5947061082,12932.5435091732,12897.4541973439,17259.6473273171,16525.0939655494,17526.86466263,15092.7331151682,15248.9545048008,16287.7358813944,9123.35345453661,9610.98573893583,10521.6375660449,14102.9732946532,14550.0156648138,13273.3018564364,13576.936745852,14550.7887922315,15424.7078321649,10831.5906581869,10537.7294465751,11443.7406989384,6721.68437623352,6597.34528628017,7655.30237307807,13009.5862487624,17099.2924150511,16035.6256311492,11954.8173588965,13110.9681659297,12667.3089246742,6319.39247845246,5670.15383995505,8654.95689079449,14911.9881975615,13556.4218165839,14040.1936351153,13768.6179164009,14141.8487421702,13660.7604815528
,38,18741.9978095293,18454.9170873698,17179.9825028957,6522.96197775218,8563.56636830056,8557.80166492533,5757.99056491586,6315.94012518955,7796.62262824478,15214.0945018611,15798.6285884591,15962.0758383259,17888.5532218687,18073.9677189948,18218.9107713743,4349.33309506791,6716.99516568546,7177.98982090795,13673.4297051365,12773.3835906305,14090.4216170726,14049.306664291,15075.9648601209,14841.0463318476,18098.7216424239,19905.8589067937,19669.4611561224,5041.44144273279,6881.27420481558,6714.84406139299,13386.0572444625,11313.6162576838,13782.0253509998,13647.8153526826,14589.3630767275,13550.0881807234,19720.0357150861,18867.1915411092,18344.5454714595,14930.7698258517,15658.7926557559,14699.6169391412,14590.4178568295,14752.0142765911,14535.6483999622,13909.7297725474,13998.6085808095,13272.2840341231,17614.7072063385,19374.4822627695,18600.9570266722,15125.203160573,14291.1849314731,15159.3734632529,6536.420790776,6654.38895451909,8829.11122102873,13272.022292852,12893.910253073,12856.1621242976,17763.9848329938,17135.0471033114,17949.7796341245,15093.0099563037,15255.546962431,16304.4975384414,9070.73693406501,9563.63161021333,10487.7655727539,14110.4646252977,14571.4138921531,13298.6726332737,15057.1448269164,15806.1282694446,16558.9588037377,10798.4081518323,10503.1573682789,11417.0197846999,6688.57605016799,6567.29341656612,7624.98142312399,13282.9913755271,17094.3096203538,16063.0409170472,14235.4187242822,14977.3219271174,14145.7955426983,6298.43026864899,5639.63619604798,8614.53869746576,14906.5052519561,13542.2042538214,14044.4172322575,13739.0351448733,14102.0477759854,13632.3389523241
,39,18726.0115296845,18455.6223020554,17162.7070576756,6490.39029793872,8507.5607684875,8513.46325402391,5716.78945720019,6261.23768296168,7730.25620719601,15156.6945402037,15771.8448777447,15912.3795779985,17849.6978643361,18038.8601402373,18199.1216329967,4303.30354685982,6660.50927581681,7130.34638142171,13724.834446461,12791.0065407427,14133.1836362895,14045.9410313348,15066.9284105196,14797.8022472727,18093.0437845469,19898.1428388415,19671.9244541701,4987.22497321846,6813.43290487308,6645.79919595324,13374.6164612758,11293.0126494571,13768.3039486021,13648.451971717,14581.4598237252,13521.752936137,19730.5793808103,18889.8674556037,18368.0237580605,14989.6739674083,15708.4881730928,14756.0794355988,14578.2270795776,14725.3902460165,14524.0316266617,13860.2738160872,13969.015735834,13215.4620189406,17752.394832982,19475.849056008,18702.6371602618,15120.5489463183,14286.976038638,15152.1612991551,6480.38921993146,6597.49752173811,8762.19086275169,13240.9305640828,12849.5247082555,12813.3661243133,18111.7592636199,17536.7105726036,18235.4628114509,15080.5787581456,15245.401880369,16301.3411110383,9022.96006246338,9532.04662492825,10438.2213386416,14114.3080829543,14584.6058704513,13308.6195668147,16043.8121247009,16622.918705068,17301.9219086224,10765.9934503985,10462.4807388044,11384.7820864797,6647.17890536677,6537.96600705737,7600.01772598833,13431.9388402544,17086.4525297974,16067.4233195194,15912.0801057476,16253.542710521,15073.2635642576,6271.54708220998,5608.12564455736,8554.76883500355,14893.4984469027,13528.9405674888,14036.7254895399,13713.6735801826,14069.3217248883,13595.9298698538
,40,18699.838992019,18436.7520794211,17142.9815630212,6461.2398719028,8440.83252277475,8478.34348431628,5678.10177268946,6193.59949898153,7685.36144433621,15143.4802982387,15731.3496350274,15852.6550832261,17825.6133395697,18006.867804004,18172.61876121,4254.80208122567,6598.74497595514,7086.48231741181,13743.1176412065,12796.5213873587,14183.6693304542,14040.9583397076,15049.6008246357,14753.2509801013,18081.1114353341,19886.5509540057,19674.9824616758,4928.40234279768,6746.93321099847,6577.832819039,13355.3146624429,11266.5629181053,13747.712729712,13639.5172840706,14563.1587343229,13484.0869991783,19732.4442686127,18906.2558334088,18386.7678730524,15036.5136825413,15754.1038342894,14800.0428284109,14568.517726645,14707.7527001836,14506.5982752039,13799.0659206133,13949.4025559889,13163.8352671406,17865.5780557402,19544.1268429149,18774.7803028385,15112.4326922187,14274.7023070828,15133.6899024111,6431.8290276561,6551.10340739224,8684.52117925493,13214.1340411319,12802.3051543335,12767.2568245897,18366.3667634388,17840.8453474497,18447.788614924,15046.6674911573,15220.6389854937,16288.947791029,8980.71444401962,9494.25024888665,10384.4887051233,14103.8785300078,14592.9852891145,13297.7514081621,16751.2304830388,17206.5363523765,17841.6991061968,10730.4050771471,10410.4604496738,11346.8390141947,6603.71268273014,6502.72363436861,7573.64420345076,13516.9066901766,17077.593107825,16057.439289964,17165.0074531292,17167.8420480345,15673.9688632796,6218.9761390153,5581.05120486769,8498.27787505918,14892.988694852,13523.3130470508,14026.0029797884,13681.2688197873,14044.1748925773,13559.5578748802
