,Temperature,A1,A2,A3,A4,A5,A6,A7,A8,A9,A10,A11,A12,B1,B2,B3,B4,B5,B6,B7,B8,B9,B10,B11,B12,C1,C2,C3,C4,C5,C6,C7,C8,C9,C10,C11,C12,D1,D2,D3,D4,D5,D6,D7,D8,D9,D10,D11,D12,E1,E2,E3,E4,E5,E6,E7,E8,E9,E10,E11,E12,F1,F2,F3,F4,F5,F6,F7,F8,F9,F10,F11,F12,G1,G2,G3,G4,G5,G6,G7,G8,G9,G10,G11,G12,H1,H2,H3,H4,H5,H6,H7,H8,H9,H10,H11,H12
,65,21249.0621632595,21597.1921322327,20217.3854240239,19345.0679029111,19378.2422851327,18006.7553314851,19369.5546314087,19625.5527011113,19519.2315737646,21587.9841220153,21690.3624814792,21878.7751696602,21316.6320894199,21575.2891700995,21654.7575415689,19579.9371934275,20315.5150738147,20132.2505162786,20608.7874690152,19517.7371203273,20173.4843440633,21107.143508286,21738.1527037705,20846.4824280337,21311.417935045,22826.6673902393,22493.4187277824,20011.3740763748,21123.5180638803,20125.9865373759,19759.1076036631,19411.0030595278,19880.1064788429,20809.5387900172,21120.2820282601,19974.3022331572,22629.099973124,21740.5043220713,21261.781461184,20711.4908524786,21004.1183899782,20134.8618674593,19997.2159961081,20026.5989123136,20169.8308953378,21653.7947210204,21496.1804411176,20464.1921515717,20573.8563058398,22351.865474886,22037.0939203127,21269.66973974,20185.6187848104,21304.6711392913,20701.4417649982,19317.8881896903,19970.1715303075,21065.2152470622,20227.9592890819,20037.321144617,21317.7509125423,20853.8134709535,21816.8140290552,19997.9656555727,20224.5132523842,21144.735350994,20783.1581552368,19920.1667860213,19657.3622296504,21229.5237623257,21257.7095635951,19664.0455635438,20127.9305471369,20469.7657305144,21570.8614158221,19212.3936833111,19331.7322441041,19890.509343043,20947.1364810418,19923.5773986843,20082.442228631,19952.19141404,22404.0404079964,21416.9054632983,21095.9516634523,20489.2166354211,19513.0584712671,19421.3752344233,19925.3520487152,20681.3249028734,21963.483818559,20729.194301815,20894.6555984428,19916.7321680124,20290.4863451706,20159.0055472285
,65.5,21191.4171197765,21523.001416457,20153.6839838935,19377.2552975922,19417.77626807,18033.0627622952,19358.7561599161,19640.299458246,19527.0910697112,21515.011765379,21635.0617782012,21833.5325178658,21246.4547467293,21499.488883259,21595.03306545,19633.6816024033,20354.1932234433,20163.3362902143,20629.4385060537,19510.2762071064,20208.3378191738,21073.3561710686,21713.3423288749,20836.6698928201,21242.2050457766,22748.7317005733,22395.6914569141,20030.8357727031,21149.1117223996,20141.8116686435,19807.000712084,19426.2358357512,19968.7892490836,20801.658284844,21104.9026043097,20000.0165644311,22543.317269179,21645.7092175994,21224.3269813611,20715.509548418,21013.069181444,20141.5342166595,20021.5217267331,20050.1481353961,20179.0765350159,21618.3457796342,21457.6547356374,20454.3942194274,20455.5405564369,22247.3131282793,21945.4604611718,21299.4858079007,20229.5379093766,21339.1535886536,20729.9928900994,19339.3033666547,20023.3990984523,21063.3347536518,20213.8703124142,20072.1437916108,21197.3575728476,20743.3335689567,21710.9619233773,20024.0295746104,20258.2370366622,21167.1978093749,20819.4603279211,19959.0451153407,19683.8948594743,21244.946132322,21271.8878387622,19701.9626576981,20042.7886334749,20379.5896502187,21471.6796220004,19254.7160007255,19386.3689304712,19927.0921858229,20977.1960557339,19945.6473972947,20118.593901651,19931.1520408213,22345.5144263951,21373.8673764132,20987.6473353604,20373.3010782724,19431.6002844487,19424.8834914934,19938.2074372737,20695.3435675261,21945.9900251744,20717.9584880276,20895.7370541747,19930.083767538,20306.1155245102,20209.1287943233
,66,21133.7720762935,21448.8107006813,20089.9825437631,19409.4426922733,19457.3102510073,18059.3701931052,19347.9576884235,19655.0462153806,19534.9505656578,21442.0394087427,21579.7610749232,21788.2898660713,21176.2774040388,21423.6885964186,21535.308589331,19687.4260113792,20392.8713730719,20194.42206415,20650.0895430923,19502.8152938855,20243.1912942843,21039.5688338512,21688.5319539793,20826.8573576064,21172.9921565082,22670.7960109074,22297.9641860459,20050.2974690314,21174.7053809188,20157.6367999112,19854.8938205049,19441.4686119746,20057.4720193244,20793.7777796709,21089.5231803592,20025.7308957049,22457.534565234,21550.9141131275,21186.8725015382,20719.5282443573,21022.0199729098,20148.2065658597,20045.8274573582,20073.6973584786,20188.3221746939,21582.8968382481,21419.1290301572,20444.5962872831,20337.2248070339,22142.7607816726,21853.8270020309,21329.3018760614,20273.4570339427,21373.6360380159,20758.5440152006,19360.718543619,20076.626666597,21061.4542602414,20199.7813357464,20106.9664386045,21076.964233153,20632.8536669599,21605.1098176994,20050.0934936481,20291.9608209401,21189.6602677558,20855.7625006053,19997.9234446602,19710.4274892982,21260.3685023182,21286.0661139294,19739.8797518524,19957.6467198129,20289.4135699229,21372.4978281786,19297.0383181399,19441.0056168383,19963.6750286029,21007.255630426,19967.7173959051,20154.745574671,19910.1126676027,22286.9884447938,21330.829289528,20879.3430072685,20257.3855211238,19350.1420976304,19428.3917485635,19951.0628258322,20709.3622321787,21928.4962317897,20706.7226742402,20896.8185099065,19943.4353670636,20321.7447038498,20259.252041418
,66.5,21076.1270328105,21374.6199849056,20026.2811036326,19441.6300869545,19496.8442339445,18085.6776239153,19337.1592169309,19669.7929725153,19542.8100616044,21369.0670521064,21524.4603716451,21743.0472142769,21106.1000613483,21347.8883095781,21475.5841132121,19741.1704203551,20431.5495227004,20225.5078380857,20670.7405801309,19495.3543806647,20278.0447693949,21005.7814966338,21663.7215790838,20817.0448223928,21103.7792672399,22592.8603212414,22200.2369151776,20069.7591653597,21200.2990394381,20173.4619311789,19902.7869289259,19456.7013881979,20146.1547895651,20785.8972744977,21074.1437564088,20051.4452269788,22371.751861289,21456.1190086556,21149.4180217153,20723.5469402967,21030.9707643756,20154.8789150599,20070.1331879832,20097.2465815612,20197.567814372,21547.4478968619,21380.603324677,20434.7983551388,20218.9090576309,22038.208435066,21762.19354289,21359.1179442222,20317.3761585089,21408.1184873783,20787.0951403018,19382.1337205834,20129.8542347418,21059.573766831,20185.6923590787,20141.7890855983,20956.5708934584,20522.3737649631,21499.2577120215,20076.1574126859,20325.684605218,21212.1227261367,20892.0646732896,20036.8017739796,19736.9601191222,21275.7908723144,21300.2443890965,19777.7968460067,19872.5048061509,20199.2374896271,21273.3160343568,19339.3606355543,19495.6423032054,20000.2578713829,21037.3152051181,19989.7873945156,20190.897247691,19889.073294384,22228.4624631925,21287.7912026428,20771.0386791766,20141.4699639752,19268.683910812,19431.9000056336,19963.9182143906,20723.3808968313,21911.002438405,20695.4868604527,20897.8999656383,19956.7869665893,20337.3738831894,20309.3752885128
,67,21018.4819893275,21300.4292691299,19962.5796635022,19473.8174816356,19536.3782168818,18111.9850547253,19326.3607454384,19684.53972965,19550.6695575509,21296.0946954702,21469.1596683671,21697.8045624824,21035.9227186578,21272.0880227377,21415.8596370932,19794.9148293309,20470.227672329,20256.5936120214,20691.3916171694,19487.8934674438,20312.8982445054,20971.9941594164,21638.9112041882,20807.2322871791,21034.5663779715,22514.9246315754,22102.5096443093,20089.2208616879,21225.8926979574,20189.2870624465,19950.6800373468,19471.9341644213,20234.8375598059,20778.0167693245,21058.7643324584,20077.1595582527,22285.969157344,21361.3239041837,21111.9635418924,20727.5656362361,21039.9215558415,20161.5512642601,20094.4389186083,20120.7958046437,20206.81345405,21511.9989554758,21342.0776191968,20425.0004229945,20100.5933082279,21933.6560884593,21670.5600837491,21388.9340123829,20361.2952830751,21442.6009367406,20815.646265403,19403.5488975477,20183.0818028865,21057.6932734206,20171.6033824109,20176.6117325921,20836.1775537637,20411.8938629663,21393.4056063436,20102.2213317236,20359.408389496,21234.5851845176,20928.3668459738,20075.680103299,19763.4927489461,21291.2132423107,21314.4226642636,19815.713940161,19787.3628924889,20109.0614093314,21174.134240535,19381.6829529688,19550.2789895726,20036.8407141629,21067.3747798102,20011.857393126,20227.048920711,19868.0339211654,22169.9364815912,21244.7531157576,20662.7343510847,20025.5544068266,19187.2257239936,19435.4082627037,19976.7736029491,20737.3995614839,21893.5086450204,20684.2510466653,20898.9814213702,19970.1385661149,20353.003062529,20359.4985356075
,67.5,20960.8369458447,21226.2385533541,19898.8782233717,19506.0048763171,19575.9121998193,18138.2924855349,19315.562273946,19699.2864867847,19558.5290534977,21223.122338834,21413.8589650892,21652.5619106877,20965.7453759676,21196.2877358976,21356.1351609744,19848.6592383064,20508.9058219579,20287.6793859573,20712.0426542079,19480.432554223,20347.7517196158,20938.2068221991,21614.1008292928,20797.4197519653,20965.3534887032,22436.9889419093,22004.7823734409,20108.6825580163,21251.4863564766,20205.1121937141,19998.5731457676,19487.1669406446,20323.5203300465,20770.1362641515,21043.3849085081,20102.8738895264,22200.1864533986,21266.528799712,21074.5090620696,20731.5843321751,21048.8723473073,20168.2236134602,20118.7446492335,20144.3450277264,20216.0590937282,21476.5500140892,21303.5519137168,20415.2024908503,19982.2775588249,21829.1037418529,21578.9266246084,21418.7500805435,20405.214407641,21477.0833861029,20844.1973905038,19424.9640745119,20236.3093710315,21055.8127800104,20157.5144057433,20211.4343795857,20715.784214069,20301.4139609696,21287.5535006657,20128.2852507614,20393.1321737739,21257.0476428984,20964.669018658,20114.5584326184,19790.0253787702,21306.6356123066,21328.6009394309,19853.6310343153,19702.220978827,20018.8853290357,21074.9524467133,19424.0052703833,19604.9156759395,20073.4235569428,21097.434354502,20033.9273917363,20263.2005937308,19846.994547947,22111.4104999898,21201.7150288724,20554.430022993,19909.6388496778,19105.767537175,19438.916519774,19989.6289915079,20751.4182261366,21876.0148516358,20673.0152328781,20900.0628771023,19983.4901656406,20368.6322418689,20409.6217827024
,68,20903.1919023617,21152.0478375784,19835.1767832412,19538.1922709982,19615.4461827566,18164.599916345,19304.7638024534,19714.0332439194,19566.3885494443,21150.1499821977,21358.5582618111,21607.3192588932,20895.568033277,21120.4874490571,21296.4106848555,19902.4036472823,20547.5839715864,20318.765159893,20732.6936912464,19472.9716410022,20382.6051947263,20904.4194849817,21589.2904543972,20787.6072167516,20896.1405994348,22359.0532522434,21907.0551025727,20128.1442543446,21277.0800149958,20220.9373249817,20046.4662541885,19502.399716868,20412.2031002873,20762.2557589783,21028.0054845576,20128.5882208003,22114.4037494536,21171.7336952401,21037.0545822467,20735.6030281144,21057.8231387731,20174.8959626604,20143.0503798586,20167.8942508089,20225.3047334062,21441.1010727031,21265.0262082365,20405.404558706,19863.9618094219,21724.5513952462,21487.2931654675,21448.5661487042,20449.1335322072,21511.5658354652,20872.748515605,19446.3792514763,20289.5369391762,21053.9322866,20143.4254290755,20246.2570265794,20595.3908743744,20190.9340589728,21181.7013949878,20154.3491697991,20426.8559580519,21279.5101012793,21000.9711913422,20153.4367619378,19816.5580085942,21322.0579823029,21342.779214598,19891.5481284696,19617.079065165,19928.7092487399,20975.7706528915,19466.3275877977,19659.5523623066,20110.0063997228,21127.4939291941,20055.9973903467,20299.3522667508,19825.9551747283,22052.8845183885,21158.6769419872,20446.1256949011,19793.7232925292,19024.3093503567,19442.4247768441,20002.4843800664,20765.4368907892,21858.5210582511,20661.7794190907,20901.1443328342,19996.8417651662,20384.2614212085,20459.7450297971
,68.5,20842.6040879157,21082.98364229,19781.6585960217,19568.0156696741,19652.2040596929,18187.0319760709,19296.0679700319,19728.9071063046,19578.5538921886,21080.4684046476,21308.0098211966,21559.9040814382,20829.5149605813,21049.9679702594,21247.8408946513,19956.5717343671,20581.8848402759,20347.4225156312,20739.4758418297,19451.1517336575,20407.1347447387,20871.0945935657,21563.9120124361,20776.2217322722,20828.9392658137,22287.2946196819,21819.2833424035,20151.1952184583,21305.8231577609,20236.3508315092,20083.2031028956,19508.1279800844,20507.0227070561,20752.4571922842,21012.092289226,20147.2461950768,22030.7091356401,21082.3063920313,21012.1627234169,20733.1754343397,21059.7734316868,20180.4266105882,20168.9019678846,20183.9443798033,20228.0771635754,21405.4091346052,21223.5841985228,20393.6133466636,19757.5193788707,21626.6942345765,21405.6120709468,21474.0954223742,20479.3868702869,21537.2303407543,20898.9418879924,19463.625885386,20341.7595364097,21054.0169497569,20132.8927862788,20290.6077278294,20478.2236381939,20083.8502102192,21081.9529167216,20172.2088612235,20453.0509092746,21293.13441235,21039.0242590158,20187.8656829901,19847.2440991021,21331.3286045031,21354.5225215372,19921.255434898,19532.5321549995,19841.7810163624,20880.9765759732,19507.1146427575,19709.7266927953,20144.0923149448,21159.5175376831,20076.3010036829,20334.6586736141,19791.9833953051,21994.7470736299,21113.5882302146,20337.741998822,19681.0893485722,18941.4088131925,19446.6913235759,20022.0036939209,20784.8853734431,21840.0561150594,20650.1405375943,20900.9086180463,20007.9318273143,20396.3602318724,20500.3684464835
,69,20774.9243660989,21016.9737533492,19738.2741158674,19600.0641186793,19687.4635284117,18209.183768943,19290.0427081332,19741.7726291692,19593.847424257,21017.1759044013,21261.7255906688,21506.4586128447,20765.9144028094,20982.4850001205,21204.8798891228,20025.8484682144,20612.097258507,20371.7728272962,20736.3605869254,19419.7457628277,20422.6896018784,20831.5434787377,21534.1267336892,20762.0957624446,20762.882837975,22217.4793555365,21738.1949306484,20174.9730999695,21332.9321812158,20250.201842466,20110.1933622803,19508.3448155991,20605.1967029898,20743.5540937164,20997.7447882599,20160.2662985456,21945.613581438,20996.3768165263,20991.610190584,20721.6781156163,21052.5688680463,20185.2197451329,20196.0437835296,20192.1519118288,20224.5964815092,21369.3153925879,21178.5942368193,20377.2487238191,19660.8026079423,21532.7802233814,21328.9262162505,21498.7914382931,20497.1618260172,21553.4441814002,20924.4257208757,19478.0227138873,20390.5640821318,21054.1688780007,20126.1510331008,20339.33430826,20366.7413978569,19981.2847655053,20986.4276184942,20180.2780434189,20474.9076717768,21297.5504897485,21079.1330595927,20220.9606147362,19880.6558286913,21335.9949769665,21365.7681400702,19941.2596079081,19447.9450011491,19756.9714207172,20787.0070277796,19546.3795169067,19753.1077109396,20181.0566045482,21194.4324728884,20092.3784322595,20366.1268024773,19749.4453065225,21937.5094467796,21063.3036443762,20227.864322719,19573.4779622926,18861.3594027276,19452.0092122731,20046.1771362241,20804.6377990668,21822.228196635,20638.9832406284,20896.8882243713,20017.7901794455,20402.6483959167,20526.0192898749
,69.5,20692.3022052537,20949.0062488945,19701.8775389011,19628.1844392309,19720.5844516458,18225.9202305188,19282.8717925308,19750.0325769641,19610.4061801037,20954.6566873991,21218.3493470474,21441.5194284902,20698.8949983783,20913.6443541274,21161.100023143,20100.0436595578,20633.4999624227,20390.3545191051,20722.0900709614,19380.5865366909,20428.505873868,20783.3361472795,21495.9494487564,20735.2793541735,20691.9765071314,22139.9832204145,21659.5912120983,20194.9428584181,21352.7610454733,20259.7276202815,20123.3588907959,19502.3356739177,20698.7626929572,20731.0232740514,20983.6358257906,20163.0397102887,21853.1016874962,20909.6792548435,20951.2464790448,20699.9611286382,21033.9575232544,20184.1847207781,20219.7959545648,20188.8587252695,20210.569530845,21324.8932342233,21124.1836871232,20350.9865982374,19567.413205627,21439.7386148474,21251.5925900036,21519.3951607622,20499.6181610802,21556.4480559862,20942.5267307446,19485.4762637634,20431.7380142429,21048.7758205405,20117.4391750814,20384.3864976071,20257.885066149,19879.3134361103,20890.3641352496,20175.8019464927,20497.2095182203,21287.1171896537,21116.731037044,20244.8179274019,19912.4115315682,21333.244617997,21373.9943054485,19944.717506112,19356.4407539759,19665.2203807724,20689.2837623597,19580.4641719562,19784.2338901109,20212.2529338303,21227.4610707749,20101.4001810467,20389.3655188009,19695.9723359634,21874.5962646433,21001.9146272399,20111.5623367533,19467.7437816588,18784.7421960978,19453.6431267555,20071.2867037456,20817.8020070997,21800.3985970001,20624.9539786162,20883.8647627341,20022.2040834619,20399.9316387249,20528.9112371997
,70,20591.0199395617,20871.9094273137,19665.6393704435,19647.6291346297,19744.0686405196,18228.7116609188,19264.0538371981,19748.8285673374,19624.3262570705,20887.4723212446,21168.3324622623,21357.1648503715,20621.1209690597,20836.8734756665,21107.6829576791,20171.6153610014,20641.4578454565,20395.1721588567,20694.6805654516,19329.0161873693,20417.8349392768,20719.5229352407,21444.8818143881,20692.1749532827,20610.4675327441,22046.354688247,21574.3815898932,20204.6822034065,21356.1403612577,20256.0300136628,20115.9492145829,19486.0557508222,20755.9829092827,20709.0522645772,20959.6330330791,20146.0534998556,21744.1304393961,20815.5231482015,20884.8704996156,20661.0636481051,20995.5834049729,20170.0172738565,20221.049542361,20165.5015495614,20176.9877576906,21264.7452648675,21051.3391042503,20308.4331336587,19468.5445882016,21338.5107058798,21160.7489657391,21527.2582456571,20482.9330704903,21537.2336345796,20945.5371676269,19481.1436641234,20455.5151335489,21030.1479990595,20095.3023348679,20416.5863062628,20142.1663987221,19772.0085095376,20785.6904985601,20150.4946543392,20514.8683622831,21254.0785963418,21140.374261361,20253.0128376129,19933.3861728751,21312.6136674438,21368.8095247042,19923.3662235082,19249.7608553687,19557.4999350925,20577.2671407478,19602.5183608107,19795.6810378111,20231.5702668811,21249.7992431866,20095.5676770336,20396.0314818879,19627.3299552595,21798.9665550972,20922.7971068199,19978.6580817591,19357.3944146941,18702.6202706171,19446.4684411634,20088.9745620353,20816.9705574815,21769.8728454982,20600.9012030761,20854.0420469359,20014.1392244111,20380.216339747,20503.9525069575
,70.5,20465.2595856714,20773.6143568101,19620.4275497244,19652.0016068755,19751.6222213915,18210.3491564498,19226.2250376724,19727.1139697218,19622.3479427895,20808.5354173971,21101.6008133567,21250.0477305184,20525.1782199071,20745.8104746163,21037.9960232912,20229.9697788405,20628.2524005054,20378.2269224248,20645.3177782969,19264.7000039325,20382.6887734094,20633.3005121603,21371.307329079,20625.06343405,20510.2625057366,21927.654257242,21472.7864552219,20194.0517338453,21334.1193363706,20232.3750283077,20085.3347569952,19453.4715267362,20767.7655491878,20668.6841046662,20913.745540372,20104.0322127662,21611.2090732792,20703.3227403025,20787.1572726814,20596.3903826376,20927.6540930382,20136.2740713796,20188.1256525486,20114.1015513684,20118.7388210189,21177.2270815856,20957.1250855935,20242.4063915887,19355.4789804017,21220.8538645251,21045.9616695587,21513.5493640031,20441.0593035382,21490.9521464118,20926.935881726,19458.2847730653,20452.6697453293,20988.9345549804,20052.4405105483,20420.240911858,20011.5105643096,19650.982088604,20663.6407748121,20099.8702370337,20519.8484539164,21191.970564764,21143.7392711981,20235.9724132904,19934.6985534317,21267.5567151731,21338.62546028,19875.8118105351,19124.2306003437,19425.3769710248,20441.7503259401,19606.1524797338,19782.72898269,20230.6113880697,21250.044888519,20068.8235347939,20378.3541148795,19536.8167759465,21700.1559904913,20821.0381292102,19823.9809605281,19234.5408113478,18608.5101460034,19417.6171572808,20089.0979881563,20794.022591147,21719.3603660952,20556.0276951952,20802.9908672406,19984.0414405097,20336.6843650919,20448.4935204221
,71,20316.0645011586,20652.8166593737,19556.1940428225,19634.650158877,19734.8801983912,18167.2724615242,19165.5966058769,19679.1864435266,19594.7699578744,20707.2153351695,21012.7022702327,21121.2700775276,20407.9493704719,20635.4804792422,20956.1425777113,20265.7396597207,20588.75457219,20335.2112368022,20571.9926411285,19180.90167935,20331.7212215925,20518.7225190616,21269.1934572171,20530.8127167993,20387.1880439528,21780.1106937748,21348.5033971591,20156.5236133918,21280.8478889212,20182.3701082439,20028.1481544887,19399.5030354996,20731.8867268151,20601.5903374824,20840.5648710567,20036.3499929045,21453.3831419264,20569.3849519636,20654.3630046825,20503.2562651953,20826.8678772309,20060.8732905466,20117.9083172318,20034.8034436963,20033.1652931661,21061.0760750464,20837.493682933,20148.7558056431,19219.3526503509,21080.8258409728,20900.4107652444,21469.4940037195,20373.1581724941,21413.8070486108,20881.2440829336,19411.6946450775,20419.998766283,20920.0626999554,19983.0297508808,20379.7996088917,19860.4682031037,19508.6563130658,20519.1247411645,20020.0015343577,20506.5545069933,21099.8382634126,21118.3028482931,20193.1189117798,19908.0504607263,21195.0336753446,21278.5544378307,19798.9585312506,18977.1205684527,19265.5157196899,20279.0196958971,19584.7025218077,19742.8188619263,20203.5982700316,21220.5554602269,20015.927414974,20331.0681023651,19420.8826534443,21577.3107844274,20691.3792616509,19645.3322595617,19092.6318367195,18494.1817098939,19365.6677975525,20061.0470058972,20741.1093264327,21642.611637672,20485.8921143907,20722.4077573323,19926.7758349755,20264.011446827,20360.9118903873
,71.5,20146.6428915494,20506.6095349587,19466.5655528511,19591.4447618346,19690.0458583666,18096.0284878476,19081.6489767376,19608.1342444678,19537.337085644,20578.1209321408,20899.5190171246,20969.8398097918,20269.3134012508,20506.8878851092,20860.4069309135,20249.7541432149,20523.0728409398,20266.5690825613,20471.8372595488,19075.9107700639,20263.7880841761,20380.3751107868,21140.4527465103,20408.0615882413,20243.2866737666,21604.1469489215,21199.7449528889,20091.8588807071,21198.4087943131,20105.0989802981,19944.0956807665,19320.1926488429,20650.1531227454,20503.9334200426,20737.021523752,19942.6839580206,21270.1130196625,20412.3976864164,20490.6123499271,20383.6361031077,20696.9591187116,19945.918360274,20013.1834920455,19925.6757327494,19921.5656504163,20914.7096140436,20690.2418939851,20032.4618029019,19057.0838836677,20917.7018038362,20728.6939176971,21392.1514344263,20280.667800545,21305.4636113042,20806.6478797338,19339.6799055684,20356.7301010078,20822.3926296021,19883.2428206934,20298.1641165806,19686.1581226,19342.4210454899,20349.6545476687,19913.0944148042,20465.2356047397,20977.863011485,21062.8329281849,20121.1360287811,19851.8744779894,21092.1201237232,21187.8112136501,19694.9510785491,18810.146184863,19079.0225416424,20089.4149845168,19537.4823719642,19675.7084937953,20144.161584202,21156.0495143199,19936.6104404687,20255.772078404,19278.5014485705,21426.8438938497,20537.6122918277,19442.0522093667,18926.595982032,18353.8406506978,19288.4684546676,20004.0987071428,20659.5868885423,21533.883898078,20386.5079210729,20610.5149517105,19840.3769785162,20161.7725153688,20248.6551631875
,72,19962.8214125532,20336.9657772081,19349.1124350412,19523.5868480727,19615.9183314664,18001.6245542557,18975.3729806834,19513.6938244984,19452.4347531065,20422.3998152605,20759.6759171079,20798.9008818144,20110.4076218717,20361.5859162637,20751.7485217211,20191.0737708518,20432.2140115623,20171.0998418046,20346.7853368029,18950.9619638709,20181.6146049224,20219.2207965338,20987.9446953354,20263.5596274999,20081.2091896389,21405.7540332096,21027.7921025546,20002.2387523218,21090.4636810363,20001.3686016304,19836.7613108961,19217.3757277859,20527.612888211,20377.4313715481,20601.8552132479,19824.6240029261,21066.8162725554,20233.8611964911,20306.5690982594,20238.3384437949,20540.1250746599,19795.2586419586,19876.2116883023,19790.8670415104,19783.6579990592,20745.042183393,20520.7258732409,19908.0848285836,18869.5300353604,20730.0359569731,20529.2494435,21282.0024589879,20167.9120421441,21169.0744498644,20706.5224414319,19244.7232918384,20266.0730353336,20697.1401653894,19755.6854511405,20179.6870506169,19490.7474576002,19154.5938576008,20157.7015688725,19778.7292499096,20380.6394155069,20829.8491082579,20976.5196885027,20023.7807690428,19767.0156942976,20960.5077154479,21065.6620901463,19568.1106125449,18636.5883165396,18870.1579612749,19873.9189205929,19465.2165925192,19585.4217305921,20057.9652961955,21060.6118456145,19832.6484668188,20153.7235181974,19112.992411017,21250.8288711794,20365.3507736184,19219.3947134295,18737.818970226,18185.9803119308,19189.1888598292,19919.0975208361,20551.0237443098,21397.8873103364,20257.4929503167,20472.1547778372,19726.7551794125,20033.1814357598,20117.6538967857
,72.5,19764.4541495558,20147.6928182616,19208.0347011775,19433.2380653018,19515.1326453454,17887.8662505471,18850.0676910479,19396.0035737468,19338.480043466,20243.0691265943,20592.6708454536,20613.6255276297,19936.6029780388,20204.0207661575,20631.3589590281,20091.4344092238,20317.4263355531,20054.026371483,20198.309310142,18806.3473029215,20085.1982375595,20039.4519752712,20813.1906535474,20101.0997702846,19906.6241668669,21189.6989243442,20835.7200895556,19888.9602061712,20960.4600417068,19876.6239251641,19710.7908209722,19094.413900315,20381.036758214,20227.9815748339,20443.2693823701,19692.3049924277,20846.6236550492,20035.7693540187,20106.6160696887,20071.4482170976,20362.4325381711,19616.9644308399,19718.7730925454,19637.0761040486,19627.9477443891,20554.7808600605,20334.2277419408,19776.2916702907,18662.372001983,20524.5454575315,20309.4030683461,21142.5616965022,20041.6896690396,21012.4634800821,20587.3956194123,19130.0782797707,20153.2108635347,20548.7175234941,19606.7254962157,20033.3438415244,19277.5687658053,18948.0450968605,19946.7385693825,19627.090801208,20256.8633745557,20661.6759791875,20866.1272691028,19904.8876479183,19658.1451279907,20807.3420666829,20917.7967418944,19426.8782747127,18459.9023011714,18645.5054462921,19640.7874887899,19370.0830946479,19477.5177523911,19947.74608936,20939.5839175782,19709.8638377031,20030.0623641774,18926.1871714575,21053.948466798,20178.0810724857,18983.1530229777,18528.9541113381,17997.3543562608,19069.2913219047,19808.4463071332,20421.7733047009,21235.8037185163,20104.2991472855,20311.1778244777,19589.1141819465,19883.2453779894,19970.7648149204
,73,19561.0927673745,19946.3978708403,19045.2554694547,19322.5246900164,19392.1868322931,17760.2683650818,18713.3299354282,19263.7354523468,19208.3495837521,20044.0082979181,20408.6872370777,20418.3306101496,19750.71780919,20038.6289452234,20498.2814338516,19959.3725065174,20181.0088904198,19921.9785984035,20031.8398004114,18643.6654952753,19978.4247003531,19847.6214209025,20622.9523339529,19927.6489785752,19736.9892579051,20962.0989061177,20627.824165597,19758.197163615,20814.9268719656,19733.5450153176,19566.8463747831,18955.1133229596,20217.1522470197,20060.4937430159,20268.3243037254,19558.8971517485,20617.3744005125,19826.2255441342,19894.0655992555,19886.592470171,20170.8505056106,19416.7548991737,19548.2382478499,19470.4970594116,19460.2296416773,20354.2112295705,20135.5159553118,19642.6178632265,18441.970236374,20305.7548118945,20075.9014516873,20981.1243072542,19912.8072466628,20837.65760581,20452.017741186,19001.6312963395,20025.4622928166,20381.0744867545,19442.4445156784,19868.6956850731,19051.4264332319,18729.0884309403,19722.4669246006,19460.0131753723,20102.1246317281,20479.5787277723,20734.1959295003,19770.8673980445,19531.0199177459,20636.9504384713,20751.0560307748,19273.5845100054,18281.6483973615,18411.8804417663,19396.725057624,19256.7579199017,19353.3464732797,19820.094780407,20799.9138282708,19572.6087030324,19891.1227706669,18723.4485956865,20843.9535282284,19981.1951583891,18736.3974536555,18305.5183032658,17791.1797261882,18936.2938705748,19677.281297819,20272.823209944,21055.0930255923,19933.172680703,20131.2019132278,19433.9476247725,19716.7500121927,19813.7710367199
,73.5,19353.842328181,19735.6901693556,18864.8227314124,19196.3125126153,19254.4413565981,17623.4651901282,18566.1973225316,19122.7761078818,19066.0206575793,19836.1308271516,20207.971646519,20215.5598260746,19554.9936471532,19878.4677203573,20333.6471862199,19801.6765713987,20029.9524216352,19776.5150331271,19849.8223799282,18470.2353674648,19842.1252788913,19649.8483360623,20423.5341033537,19745.1681564017,19574.4905971048,20727.702632354,20407.871961799,19615.5119087587,20659.4843193126,19579.4398558216,19410.3201137204,18801.5862237862,20039.4377988206,19880.2250037325,20081.3276607563,19424.9759546292,20380.6669124787,19607.2760283175,19672.0210569959,19688.1595427337,19968.0859738886,19210.5477871796,19369.6703486372,19291.4621489978,19281.3403643623,20146.1700440121,19930.1427418511,19511.4854598511,18213.9825525611,20076.2506230455,19835.6325556076,20802.2864367148,19782.1987241383,20648.5964374447,20306.7514388264,18862.9520015216,19884.4775216232,20199.3498639526,19265.5084434054,19695.4938120422,18818.4223670942,18503.8071742716,19487.879348306,19281.7893252104,19920.9673711927,20285.6912014238,20585.8812070057,19625.6081992363,19391.0018310809,20453.3473576824,20570.3065330484,19113.5877022714,18103.5680888665,18173.5639504157,19146.5209920632,19127.6255007989,19216.978431264,19678.3411621172,20646.8354594724,19426.1287702459,19742.0294038248,18508.5338449485,20623.7487285453,19780.2698096412,18482.9583663489,18071.0473409729,17573.6066555063,18789.263579083,19530.1975688821,20111.2077129985,20858.1923145904,19747.4895394229,19938.9000928892,19265.4467857359,19540.3480004184,19650.9880173788
,74,19144.6944750872,19520.4118153026,18672.0639219443,19056.1837734125,19105.1346592076,17481.1054655093,18412.9138295043,18971.6830792948,18915.4766246488,19622.1717208123,19996.6185931789,20009.2171239952,19352.329102833,19722.1523187589,20144.1764677398,19637.2840052765,19864.4620377499,19619.1319643637,19656.3420634164,18286.669962457,19680.3457634355,19444.8916769221,20217.9217677893,19557.1115436596,19416.4794182826,20490.4498924318,20179.7041107689,19462.5263404891,20495.9798719873,19417.6855315376,19244.8420773178,18636.6539083841,19852.0594123836,19692.4933805256,19888.8867342059,19292.6341619909,20143.0854435698,19383.4517406645,19443.3573523907,19479.7174445459,19757.0481840958,19000.2494183792,19182.333965745,19106.7147362604,19093.3369220368,19933.3458944436,19722.0475061447,19379.2034953952,17983.0195024732,19839.6011508986,19588.6103380481,20610.3592236092,19651.4290088709,20450.712740056,20153.7276203831,18716.0566508425,19735.5060196035,20007.5625520796,19082.3942503006,19517.0855600043,18581.6172668872,18274.5514513178,19248.0671876966,19093.0547740889,19722.7316237345,20083.5729897198,20425.0636613349,19471.4624744578,19241.0375984944,20260.1386252739,20378.0283413705,18948.8084867782,17925.771659616,17932.5037606636,18893.1122603026,18984.8560947601,19071.093645827,19528.6203424507,20487.0872670265,19272.358960549,19584.7686678097,18285.5613809855,20396.6760492807,19575.342552527,18227.8503297415,17830.1372245222,17351.8760397468,18632.4204715579,19371.2066100455,19941.1501951294,20652.3792887385,19553.2117049519,19739.0779455757,19088.5132168577,19356.9823405495,19479.9013294127
,74.5,18933.9420767647,19302.2676190803,18471.5595422683,18905.3055970285,18948.6099382597,17332.9241698568,18253.6273424628,18813.9659553401,18758.2686733028,19406.4376605611,19776.7269315868,19799.3958002175,19145.9057062814,19569.3995450845,19932.2954552348,19464.8486358403,19687.9024818642,19454.5924445118,19453.5371136766,18094.7669673174,19494.0744987682,19235.8970808761,20006.0208921769,19364.4072852388,19263.1436379612,20251.0068267488,19944.8984987723,19302.3905518835,20324.6210711519,19249.6731821631,19072.0226819579,18463.6292435303,19657.6116270091,19500.1718070312,19692.4255357926,19164.1398775056,19903.9442127333,19155.8586739092,19212.3052877182,19264.1874590312,19540.2790541763,18788.2003706245,18988.8461781326,18917.033420745,18902.6134179457,19716.8844396491,19511.2834989967,19225.7463389947,17751.9892364296,19599.0553553868,19341.8922723526,20408.8249826421,19516.9370967481,20247.7809669845,19995.5895147747,18562.9023109264,19579.6443594151,19808.3836663737,18894.3008818872,19333.9974945135,18341.1629043238,18042.8833459227,19004.8779042214,18899.7914957348,19517.2314271681,19875.1737496533,20257.1180754461,19309.6836601944,19084.1609422946,20061.7569289574,20178.9003755389,18779.6693449548,17729.4053663716,17693.1957425912,18640.1061846674,18831.9624433118,18914.7430809005,19369.7652153344,20320.364733278,19113.954781354,19421.7215303257,18057.0067275172,20166.3581234824,19367.1003678935,17971.4571237786,17585.855120181,17128.4982652193,18467.1273845834,19203.6116305746,19766.2446038667,20438.8720519661,19351.4822295853,19533.1117170197,18903.3061925253,19167.7378719855,19301.7914007586
,75,18723.3166766527,19078.7037346211,18264.0329334978,18746.3822302728,18787.1112727794,17182.5406712506,18092.1185654054,18651.1210232994,18597.5708340005,19189.6655907292,19555.0313807925,19586.0719026375,18936.2531375709,19417.9845508846,19703.5204823554,19287.5028769866,19503.8241549938,19282.3137322161,19243.6980480813,17900.4127304187,19290.9454532869,19025.5130032155,19789.9592048257,19169.43512152,19113.5149706376,20010.2977148585,19707.5720657022,19136.7834404351,20148.4762415645,19076.1724970471,18892.7037965081,18282.2939843775,19457.438031078,19301.400036961,19491.0100681171,19033.0250167759,19665.8604136321,18927.7719393161,18978.9500700157,19043.023401489,19318.739045024,18572.4114444589,18789.1078200699,18723.0662177399,18706.5107928584,19499.8264755224,19300.2339208763,19058.0080749446,17521.7951567649,19355.9867044573,19094.7238362957,20201.4166520982,19372.4028012669,20037.9509845651,19828.6790624726,18403.9031256592,19417.2197127551,19604.2278108124,18701.4292399743,19143.7563738968,18101.6619806754,17811.1209386945,18761.1101777708,18698.4491648092,19308.8791324335,19660.4209853011,20081.7649084365,19143.0061040914,18920.4167336122,19859.4511347396,19973.7715199236,18607.1298026215,17517.0307470978,17454.7447253607,18387.1435201674,18671.1897688867,18748.9697975752,19203.3861300052,20147.6698228636,18949.3443560161,19254.3772243383,17825.6903192359,19934.9836851913,19157.970617331,17716.5330081034,17340.3211471227,16903.8065369302,18299.0541655633,19029.2595708116,19582.1355984526,20219.509133362,19144.3087357203,19323.0008635466,18712.9252314349,18974.6734895409,19120.9070980155
,75.5,18511.2547264626,18855.2830604837,18053.1711165473,18580.6187625307,18620.4810242843,17028.5315608659,17924.7007046497,18482.4326177588,18429.9807384097,18974.9377158252,19328.1898214499,19373.0012856526,18727.1443716429,19265.0721665133,19462.9081354237,19104.4924382776,19315.1388289747,19102.8331758097,19028.0203179283,17703.9715090153,19073.6026012067,18811.8499605391,19571.7303314139,18972.9814099381,18942.4962117904,19769.9709834826,19470.2904154391,18966.4556407327,19967.123190279,18898.8967297842,18710.1242395677,18093.8761240486,19252.9518274881,19097.635060995,19286.8602649641,18884.313626697,19429.7112864865,18698.7349897505,18745.5591924521,18821.251872248,19094.058724453,18353.9752133827,18584.753152866,18523.4856306686,18504.9772614294,19280.8065018298,19088.2256344869,18875.867923745,17291.8678189749,19110.9328306876,18849.0645026468,19986.827637965,19206.19590859,19825.0149334071,19655.7895057335,18237.4272587227,19248.6538254029,19397.8700844101,18504.5554711939,18949.5331361787,17862.8393992464,17579.3635600653,18516.9935446892,18493.5522419607,19096.0122596299,19440.7143676632,19899.8475573412,18971.2244288626,18749.3232645096,19652.9538541602,19764.635771712,18432.8896813947,17292.5639197425,17217.1601782725,18134.7654582232,18502.5358726976,18577.8523790123,19030.5854806891,19967.5450888746,18777.7890241686,19081.4038318421,17592.0610062858,19701.7463800558,18956.6177017988,17464.7210488826,17095.2537933619,16679.9404293079,18126.1801481278,18849.5868918793,19394.7608450595,19993.5169050263,18933.4861013061,19110.1725512467,18517.3400299083,18779.1924594368,18937.0035422488
,76,18299.3477705111,18630.5340146832,17842.6870654104,18408.103043281,18446.439525027,16870.3727215257,17754.3896490321,18307.4141650969,18256.2526791092,18757.105148558,19100.8183882796,19157.7122039703,18520.5280168183,19089.5177918713,19223.0839541533,18918.3905757439,19119.2409045386,18917.278340348,18809.2381905281,17502.4488769287,18853.2371266805,18595.637109676,19349.9751193456,18777.4363959587,18753.5181393713,19529.9097810561,19234.1881350315,18789.8739358431,19779.879057607,18716.1448167107,18523.607829769,17901.5526241204,19046.3100800857,18891.6002842471,19078.5846430147,18719.9660106707,19196.0157436986,18471.260400449,18515.1372335759,18597.9595725169,18868.6102923784,18132.700747321,18375.8395867971,18321.7441793413,18302.7126444068,19060.7437828827,18873.1806387709,18679.5971050857,17063.7299416264,18867.1733842748,18605.9493365079,19768.2111734653,19022.7970622636,19610.6636935695,19473.3900108892,18063.7609924441,19075.057871387,19189.3900429985,18306.9508596355,18751.5448845119,17624.5060400528,17347.2358707081,18274.3384705793,18285.3102652097,18880.1344960799,19218.415726635,19712.1241995202,18791.2859651328,18572.1792257577,19442.3945510584,19553.7419215713,18266.893826631,17057.5590060781,16980.9557375148,17882.4595562936,18328.2271871382,18400.020628401,18851.0593008697,19780.3266167369,18599.478099858,18903.1347403078,17356.7315640913,19466.8023137041,18766.4338878316,17215.3491430435,16851.2214057421,16457.3282531146,17950.9528076024,18666.5176027645,19203.3573797973,19767.0777663682,18720.7839557964,18895.8921454747,18318.0731718965,18579.607410902,18747.9357333094
,76.5,18085.9860702274,18404.0192848983,17634.1844468848,18230.849915165,18267.3546723995,16707.5596945654,17576.8094415994,18127.6729656883,18078.2117269427,18538.1933018462,18870.6154920249,18939.6154514028,18318.5534442675,18895.029985711,18984.0645096349,18727.3260549386,18919.6845283428,18728.6308287229,18587.965755701,17300.1016562215,18630.3861709454,18379.4422768406,19127.1468519502,18584.4175180425,18549.2694330278,19290.2021261101,19000.9244761796,18608.4348200824,19587.7548175692,18526.9525798029,18336.2887619269,17707.7223505638,18836.3420516379,18681.9333212625,18864.6709159013,18539.5034304272,18961.9165609342,18244.2794468921,18287.0300491863,18374.1872589474,18642.5341456138,17910.3693839046,18164.8661229675,18116.3751386144,18098.9070038139,18841.6508677936,18657.0650905275,18472.5447382749,16836.1027474003,18624.6561758291,18365.1339867499,19545.8929172935,18823.1334984953,19393.7559376366,19282.6431322135,17885.444184214,18895.5089722919,18979.7188010879,18106.1637545613,18549.13547173,17386.4966425495,17116.2382352394,18032.4800020208,18075.8489284645,18660.638601261,18994.8798630812,19517.5714178638,18605.9615516968,18389.1495801584,19229.6664173745,19341.3300772982,18108.6247389316,16813.4482471891,16747.2413391514,17632.1897138301,18148.4775253433,18216.0962252291,18663.3749397042,19584.5744204048,18415.7738600147,18718.1089340362,17118.9102682616,19231.2787689437,18589.3720027361,16967.0534764427,16609.3553812091,16233.2292724072,17773.7926740371,18478.993772726,19005.1355831054,19539.5806072807,18505.6003861559,18680.4105333605,18113.9340405264,18376.8545276538,18558.0805341869
,77,17874.4567452282,18176.051498377,17427.7000106273,18049.0146523525,18081.7734282676,16539.9764358851,17396.2106327689,17940.4194729973,17895.575148078,18318.5674241331,18640.1123099098,18722.6439385735,18121.6241884189,18684.0855292136,18747.0285996153,18530.4004244592,18715.7216851901,18534.0432720244,18365.7696055621,17097.4983631258,18407.2651370136,18162.0995444329,18903.620335335,18394.1488516726,18332.3561879218,19051.464313802,18769.7031428868,18420.1948782758,19390.9478790544,18332.8765275639,18158.4893637061,17511.3271267337,18624.3995485311,18468.7392809795,18648.2038506826,18342.8739174675,18730.1342066763,18019.2457467664,18059.846790033,18149.4349291575,18415.3559578391,17687.0831604342,17953.2320931469,17908.8908150062,17892.7262831516,18623.3459647327,18439.6525088539,18264.6539434533,16610.0018095598,18384.5447682033,18125.2509681804,19320.4407520929,18612.4906116757,19171.905876984,19082.2274524004,17700.7796369984,18709.3367927555,18768.7532648372,17903.2877406522,18345.1908799485,17149.7156120928,16886.9446094269,17793.2299509684,17864.3182849918,18440.630354321,18770.2474901078,19315.1524366934,18416.2245580584,18199.6290755391,19014.478141699,19127.12942236,17958.7064378155,16572.8571864917,16513.1823241675,17382.8008889178,17963.5551130138,18027.6998310041,18468.7414107739,19381.2698055157,18224.1564640491,18525.4005879484,16877.2644752515,18996.1565719922,18422.3466756466,16720.2464685849,16368.3575785165,16009.7538830843,17594.3397966332,18287.1124107989,18799.6910767785,19309.2372361141,18290.4494278727,18462.3207585317,17907.8214395804,18171.9300028708,18368.0988726898
,77.5,17664.9064161139,17953.4810163694,17223.306716305,17862.2455984533,17891.3426761456,16365.851718819,17211.1340914453,17748.2880541738,17707.700538345,18099.3933041004,18409.924495058,18508.2505145376,17932.1308636446,18461.1862396255,18511.3605052874,18330.219071834,18506.6086504825,18335.6205775054,18141.1169507931,16891.2409954005,18181.5042423328,17944.6938713846,18681.4856323145,18204.7642754779,18103.9823517771,18815.218788397,18539.0361871777,18226.430207478,19189.2178388584,18133.6988717168,17991.7895602191,17314.445044367,18411.8413184407,18254.0566157731,18430.747300332,18136.4665015368,18499.2546204736,17794.9739099547,17835.8019020452,17924.2200562405,18188.1494524007,17463.6186076911,17741.7796419572,17699.5470507819,17686.5260837619,18405.5068174696,18221.3614891593,18054.4278583273,16384.9279518584,18145.7611334705,17889.7330365577,19091.2032712288,18395.4669170237,18948.533017348,18876.8928653459,17510.4251366859,18519.1884471554,18555.9388253519,17700.1265958707,18141.3712393787,16913.3477658266,16657.9956252208,17554.7509910691,17652.9360476314,18217.9917476895,18545.8029397769,19106.6412971136,18220.2791698239,18005.0223933074,18796.5132766874,18912.064239593,17815.8689956599,16335.6228321933,16280.9724128591,17134.7121353648,17773.3329018434,17835.0700988043,18267.7760525257,19170.488090493,18027.9685249665,18326.3126931186,16632.9667524905,18759.5009507546,18264.011571351,16474.270161691,16129.7898718444,15787.2522511197,17407.5485022369,18091.9305485133,18592.4088772732,19078.6260341142,18075.5529511198,18244.6638530308,17699.0732917402,17964.4758138448,18175.2518183535
,78,17456.7670929943,17730.8438854987,17021.5622565545,17671.6865351158,17695.1214927441,16186.912450075,17022.589101461,17552.7211965887,17513.9428420187,17878.8156053289,18180.9006662198,18291.2902488209,17751.1009850991,18228.2040702833,18277.5640116309,18127.3451509659,18292.895907949,18133.0997756857,17915.0593769284,16682.1694452052,17952.3479850585,17728.6289690101,18460.2368813393,18015.8264727642,17878.4228180976,18580.27862585,18309.1377825884,18026.959345163,18983.1411128718,17929.9227753678,17833.363810277,17117.7659209478,18197.4892654886,18038.1930387264,18210.9984176937,17926.3965330098,18268.427929722,17572.0588378196,17613.7980131648,17697.3430842764,17960.204181063,17237.9654754,17530.866616805,17491.3144612302,17480.0989845108,18187.2911768905,18004.4942365368,17843.5520733779,16162.2071910412,17909.2662143165,17657.042957367,18861.1114309592,18179.8934345833,18724.366855914,18664.7791796572,17316.4622091802,18325.2354326455,18341.2071443758,17497.5387579009,17935.4444444488,16678.490192907,16429.3382481647,17317.8691276318,17439.6544450471,17993.0749287542,18321.1151852128,18893.5092580114,18018.9798192795,17806.6300983934,18578.5547819876,18694.3121763765,17678.0592951377,16100.2646203932,16050.9863171841,16889.2333719226,17579.3938648706,17636.4086898465,18059.7783604468,18952.8026853907,17827.434903934,18122.8932605618,16386.7880546664,18522.9289885991,18097.3764608043,16228.7912853336,15891.5112123774,15564.242607684,17216.6884981648,17893.5415829922,18382.3442738393,18850.3280250099,17860.9686482922,18025.7655507856,17489.0063095802,17754.574373028,17980.4898043929
,78.5,17250.8997319954,17509.111546432,16821.9987073427,17477.7062600633,17496.8460606845,16005.201684689,16828.867699692,17351.9149085069,17316.3498743316,17660.4725928282,17955.1914095058,18074.3350425916,17587.2984131657,17999.1563904937,18046.7009344198,17919.528719766,18077.6761058223,17928.9154109473,17685.787337785,16473.6254756585,17720.9391726248,17512.4543300485,18240.5379527611,17840.5835850692,17653.4668367166,18346.7142404055,18080.9712541614,17823.4754295075,18772.9965589139,17722.3432754926,17682.2173585588,16920.9715344411,17981.1003760493,17820.8625416439,17992.2175433933,17714.774845115,18038.4669940683,17350.1502429615,17393.080144158,17468.6954617774,17730.8877934916,17010.6222672127,17319.9709049383,17282.9055525885,17271.4889751193,17969.8105952249,17791.1216443324,17632.418379708,15940.4776789363,17674.5861760661,17424.4936830202,18629.3901609071,17964.681331436,18499.3037640775,18449.4290456182,17119.7120810396,18127.0804484701,18125.9123412663,17291.8356831273,17729.4234561305,16445.4296229183,16202.2541778703,17083.1639378223,17226.381217119,17767.3520107809,18095.6620735,18676.4587034998,17815.9357352099,17604.1042380605,18360.6289224269,18474.4070530991,17523.6804756678,15868.355672055,15822.9903141785,16646.5154482087,17381.4413366397,17433.0500830767,17846.8893000218,18730.3062553647,17622.6493202044,17913.793148504,16137.1399507726,18287.6000048097,17915.9540029904,15984.6189899858,15654.5392576495,15341.5412662256,17023.7408372303,17692.2934795315,18169.4648904474,18619.3309074671,17645.6405637974,17805.2273845934,17278.9686842716,17543.3842967964,17788.2505117859
,79,17048.8502570061,17289.7593266675,16623.1086720479,17280.5630141212,17295.3059104545,15820.861454251,16633.7690491979,17147.283356607,17113.1434233312,17445.7505344765,17732.438095045,17861.0311198266,17436.7020600656,17772.7774561746,17817.2233912603,17708.4350138257,17858.4119302685,17719.4996127702,17453.120114651,16262.2626837475,17487.3073785183,17297.2323471087,18020.446338316,17676.4903688766,17431.4806649351,18114.534479692,17852.1073033484,17615.6508908137,18557.8821897424,17512.9073645782,17533.8821831139,16723.4742984892,17763.4129773318,17602.7408481789,17772.2592822385,17503.6210329264,17809.78381086,17129.7288937624,17173.50898364,17235.9808767225,17498.4279289657,16780.3522789699,17108.2836106609,17074.9012842463,17063.9814513211,17753.1492996839,17578.6623578591,17422.655242063,15720.5365274396,17441.853389731,17194.0953803388,18396.9398977048,17750.5674261654,18273.3932190558,18230.5604003372,16919.2735652981,17926.239578736,17908.1260936812,17086.4344502042,17523.5771909208,16214.4572015475,15976.0373593691,16851.5777215836,17011.8504040451,17542.2874426914,17868.9513279296,18456.0997355341,17609.4504156691,17397.5472724307,18141.8176010719,18252.2307111902,17352.2287365379,15639.1651648855,15596.6533320374,16405.9710979445,17180.2164268822,17226.7479913744,17629.3844833526,18502.6385124041,17411.7783763632,17701.2529700944,15883.1733943243,18055.2227759791,17717.7618272075,15743.2756106353,15419.9409602659,15120.9247803602,16828.0092503772,17489.0990822725,17954.6162310893,18387.3980220111,17429.9519521906,17583.4939818083,17068.4699414064,17331.0280840946,17596.4217051943
,79.5,16845.7102855575,17073.7118644802,16424.3878134986,17079.5985251033,17092.2829150318,15634.2002541878,16432.9379287737,16942.1734600608,16904.0443036441,17230.7950016921,17512.3085693868,17648.4899979496,17296.5038408791,17548.6400175916,17589.6443167164,17496.4700046917,17634.7759421926,17508.3086349608,17214.7726509869,16048.8117835919,17249.5335186748,17083.7416979246,17799.8373379799,17521.8101368856,17210.7369255924,17883.2710590589,17625.7482729487,17404.714683445,18338.6284403758,17301.2348765913,17367.6941825933,16525.2216029551,17543.7584469847,17383.8390690068,17552.5788332648,17293.7035654017,17581.3161084422,16909.9131458117,16956.0510819826,17000.933769499,17262.7357656613,16545.5125910117,16894.4942850892,16866.1091016243,16855.5377496707,17537.1128461486,17368.9639127429,17214.9004641785,15501.5623027227,17210.3850591466,16965.6213890452,18164.2556337902,17535.6981036477,18048.8896246063,18010.0161159121,16717.2008609813,17722.7530294176,17689.5674132264,16881.0263422732,17316.171810781,15985.854444145,15749.8711705137,16619.9614143751,16796.3104080539,17316.1987946761,17640.8723547571,18233.1758734743,17399.3221639523,17188.257278562,17920.7825837046,18028.5641833126,17166.42460257,15410.8336043416,15371.766684813,16166.9039038732,16974.5873876217,17017.412851174,17408.6361361579,18269.7207475281,17197.5786727243,17486.4959219132,15624.4492463857,17821.7287169515,17506.189161291,15502.5796558045,15187.3992338854,14900.927573315,16629.2365752541,17282.9181908769,17736.9082765701,18155.8670531052,17213.1057983358,17362.9951864723,16857.3377301164,17117.6212083335,17405.0821046946
,80,16642.967870425,16855.1210052017,16227.0443379708,16873.3258330787,16884.7717437103,15445.4553780621,16227.6177461702,16735.1829959799,16692.3645758731,17017.2795195844,17291.0036390544,17435.5269304995,17162.44674779,17325.7085093694,17364.1797227388,17281.278713446,17408.0046603926,17292.565162668,16974.0351311969,15834.3583527427,17008.1884112104,16869.8157404018,17579.0562193034,17378.1881228448,16991.2221523835,17652.0090668905,17401.1916266531,17189.8638198461,18113.7987996144,17085.8259567111,17182.3210218951,16326.5582978883,17322.2188285106,17165.2839992703,17331.9121593107,17084.30007144,17354.10549898,16691.6766198306,16738.5611568364,16763.4878761266,17023.9416768768,16306.1344722973,16679.6401436559,16657.259512302,16645.7110852516,17320.3851417423,17159.654332755,17009.1703735624,15285.283885249,16980.753206811,16736.5319185342,17931.6360496146,17321.1563701693,17824.9545444211,17786.6532063323,16512.9399592209,17514.4644591063,17471.1207188386,16674.4187513296,17107.5879678974,15758.0909411116,15525.104481009,16390.2440164326,16579.9239186199,17089.1669702351,17412.3448062639,18006.9797266487,17186.512436243,16976.4491789249,17697.3859702124,17803.3824883637,16965.4248800119,15183.6279831758,15148.2926128481,15930.7046513041,16765.126695752,16804.1055572429,17184.5415976684,18031.8102364731,16979.0495450179,17268.036915766,15358.704738385,17589.814731322,17281.8972596985,15263.028671305,14955.7633126936,14681.2982627462,16429.388490016,17074.5193658756,17515.9067358311,17924.4806759623,16994.3367855691,17140.0488578718,16646.2876568231,16901.9703334769,17217.8941878801
,80.5,16440.9863218852,16636.3822411252,16029.8030918956,16662.6767554275,16675.4048947503,15254.5922669079,16019.8938416038,16521.3925060569,16477.5243620052,16803.4156131404,17070.1900489268,17224.5735466443,17028.0764259074,17105.879256584,17141.7955394505,17063.3616394799,17178.3984211154,17073.090593996,16730.0804337517,15619.7199338709,16763.4218690586,16657.5087265396,17356.9922726745,17241.9414096164,16771.2420713678,17421.5027042955,17177.4537785186,16970.6594368215,17883.6987452726,16867.0949132994,16983.3772563344,16127.3841908926,17100.8092101826,16947.7787673265,17112.4231367492,16874.8655017798,17126.1328916802,16475.6217314007,16522.036849999,16522.3750860844,16781.0178266456,16065.3711471013,16463.3010492639,16447.4897116956,16435.9362223342,17106.2798413683,16949.9461523438,16804.8327000526,15069.947950342,16752.8919517127,16507.4110276471,17698.2870618204,17104.8917573868,17599.5510225055,17561.5077124514,16305.8830584488,17301.3717366537,17252.1748917487,16464.9341541746,16897.7600192216,15531.407171952,15301.4207023973,16162.6588523396,16363.7629544267,16861.4942159951,17182.3894875852,17777.1541491582,16970.2569837267,16761.4418210809,17471.3457070454,17578.9613209553,16752.3117160948,14957.3273646535,14925.7056362089,15695.3477331174,16550.5265898874,16588.2519355679,16955.8764901316,17790.353820325,16756.7980023665,17044.4474687526,15083.7903026016,17358.7532378568,17054.0394743009,15024.3337115904,14726.3583362097,14463.2179838366,16226.9607997939,16862.5188608362,17288.7241316718,17691.6062200585,16773.0803723397,16918.2878417439,16434.8236703853,16685.0940638415,17033.3729032069
,81,16238.4209303898,16420.4342913995,15833.1814217355,16447.273512134,16461.0450971935,15058.8590079298,15809.1067466555,16305.7251492681,16258.3209174371,16589.9696560904,16845.901369054,17015.0716126866,16873.8060674715,16886.7006374575,16921.6160768406,16842.5740563129,16943.6083451161,16847.8357768811,16483.8049237913,15403.0479209062,16516.7844985791,16447.0857757159,17135.3366857698,17087.1005922414,16554.1140577843,17193.1045452126,16953.9309153685,16745.9420572289,17647.7804220768,16643.7707256753,16772.6994287093,15926.9428459504,16878.7766358258,16730.0822555421,16892.4013916575,16665.0054063068,16899.4788272261,16261.0461989429,16306.5090335554,16280.096049847,16535.4845078654,15821.646452605,16246.4584906088,16237.400763399,16226.423845736,16892.7910270785,16737.5458603346,16601.2748670231,14856.2666426069,16526.3784809557,16280.7544170033,17465.1711818799,16886.5449872448,17373.4032685227,17333.3586146162,16095.3452930614,17084.9420998353,17031.8763944978,16256.3744602094,16685.5607412392,15305.134390381,15078.320701779,15935.0726393358,16145.8374912516,16632.9200835473,16951.7888405645,17543.4862698964,16750.1305167295,16542.6433952659,17244.0879088523,17354.3572655095,16538.3556061544,14730.6229033719,14704.2806166588,15461.7521819201,16332.1430509485,16368.67099135,16722.8393199218,17543.4275525471,16530.7088109602,16817.6818284299,14799.3406218835,17126.9381546273,16824.4818570285,14786.3889637616,14499.3402985103,14246.0498832025,16020.3533112135,16647.4881370989,17056.8638362325,17460.3377918399,16551.8065386959,16697.2485852749,16221.978442998,16467.3220279444,16858.8211173421
,81.5,16034.3746011381,16205.1270052181,15638.7014109478,16226.3113401304,16240.291580934,14857.8871180828,15592.3138256236,16086.1129051379,16035.5278356893,16374.417412222,16622.5872977608,16806.6820735742,16700.65582924,16668.629705531,16704.1009581116,16617.0914837853,16706.6685736201,16620.0765976978,16235.7016535393,15186.23879199,16269.5137428912,16237.5267701312,16913.9982673287,16914.5623993537,16337.3816602656,16965.9549638016,16731.8003353597,16515.8924514669,17405.6988388111,16414.4422256706,16551.2016341661,15725.1845978742,16656.9273452079,16512.2289532052,16673.7970031287,16453.1705837264,16674.4804952366,16047.9257983262,16092.5887277162,16038.3409841729,16288.6533955043,15576.8142366,16030.6169476823,16025.5953369934,16015.0235869227,16677.254491653,16524.9306119188,16395.9137295936,14645.2682529941,16300.8268061751,16055.7588784715,17231.9758565512,16665.7477996365,17147.4444424736,17102.3446213383,15880.2443699962,16862.7822157717,16810.2463027055,16045.081757531,16470.6329327432,15079.9807589973,14856.5868287619,15707.9657549931,15927.8376484087,16402.3337694452,16719.9962746066,17306.8869726655,16526.4604255449,16321.5909414171,17015.6004332236,17130.5184713,16325.3561121909,14504.9495890895,14483.9369058299,15227.8720463434,16109.8766618169,16143.7935268019,16485.9219475625,17292.2851598011,16302.7303280232,16586.375251649,14503.6213706916,16893.0070522425,16593.6707138483,14547.7588109619,14272.5452027945,14030.2336994537,15808.5399840286,16428.4853257567,16820.8673574202,17229.2709609435,16331.3887404993,16477.0614392121,16009.0436001889,16248.1648030074,16694.3223873538
,82,15833.3979259386,15990.8438835455,15446.6513509585,16001.1212774726,16011.2185545713,14651.9485569998,15372.4724187087,15860.4660891218,15809.8664428067,16159.5526990343,16398.5430246423,16598.5873927717,16511.5824755108,16452.9354523224,16489.3539024552,16387.4986462171,16468.7038050307,16387.6312784026,15989.4077871169,14968.893989884,16023.1101160822,16028.0965731875,16695.7999152246,16726.9885664895,16123.0846930651,16740.3074876692,16508.9076588495,16279.6496080177,17156.7527292171,16177.6327156232,16330.567825507,15523.1589212377,16436.7045210986,16295.1944067917,16454.873217293,16240.351661718,16450.8633584618,15837.2162916164,15879.1301856978,15796.808258548,16041.9713227735,15333.869562644,15815.572155553,15813.2129944039,15802.4396405432,16461.7585832988,16310.7249440503,16190.3981095849,14436.6150796328,16076.5666834243,15832.2426290993,16998.2333005692,16443.6188771502,16920.9792993531,16867.808233084,15660.8992834346,16637.0102215336,16586.9720311463,15831.6513218032,16252.4166450568,14856.279537828,14637.3423625428,15484.0793351331,15708.379766011,16171.4314163455,16487.6942403538,17066.3803744689,16299.3840696259,16097.5843982876,16788.0473959786,16905.6109288674,16111.6401499533,14280.496061046,14265.4646556313,14997.1227724263,15883.7324599795,15914.1314054353,16244.6303463571,17037.4922072667,16072.4749153795,16350.9931968324,14194.0206176363,16659.8880468479,16361.4100484217,14311.2442268424,14047.750753748,13815.862613827,15594.087329491,16205.7580479099,16582.1905010535,16998.6441443555,16112.7016843112,16256.8562346828,15794.4931619735,16027.4557248125,16538.0526160317
,82.5,15634.4988751109,15780.7301925207,15256.056555814,15772.3726375844,15776.492471839,14440.9924783669,15147.8348709285,15628.249550529,15578.992532644,15943.1523891483,16177.4411056446,16391.1158753974,16308.363530495,16238.7192744423,16277.3519535332,16154.5269537842,16228.0062069948,16152.0310783888,15742.7735435662,14750.932125424,15778.4341047361,15819.3513273078,16476.3066724862,16521.1358747045,15910.6686628065,16517.0036577931,16286.8191346245,16037.2597422801,16901.9845450796,15936.5941563447,16112.2354643933,15319.2645951238,16217.2639564345,16077.851939264,16235.8513913448,16024.4162385769,16228.6951990505,15628.2453866888,15667.962279038,15555.0363824008,15793.4849078012,15092.8531074668,15599.9084446854,15599.458500455,15588.9963520898,16248.3546498611,16097.0921162843,15982.9344914582,14227.968145402,15852.5825612903,15611.1384203601,16763.79953796,16218.0557369599,16693.2683854077,16628.6604720046,15438.4296042845,16407.8857226794,16361.3211074408,15616.9550012617,16031.6759120726,14633.8508520818,14420.1108493029,15261.1203351118,15487.2984059425,15940.3322402064,16253.971010641,16822.8678409496,16069.9066368392,15871.9582790582,16561.9315525399,16680.6845716228,15898.5838855456,14057.7261847245,14048.5264811598,14766.9242927899,15653.6478867894,15680.4573864841,15998.5774838847,16778.4776554886,15837.8426669173,16111.3898664554,13867.5958265835,16427.0722787043,16128.4804702201,14075.8191062668,13823.987655703,13602.4902563998,15377.3006924837,15978.7067054302,16339.6244163462,16767.6043836712,15896.0333535925,16037.9014101267,15578.2991291155,15807.4884931118,16384.9214962738
,83,15437.3409998055,15573.2512643137,15067.5637909643,15540.1638323166,15535.8303883615,14225.0693611101,14916.6145142293,15394.5413971751,15343.3181357012,15727.0407879185,15956.6590384714,16183.4734432576,16094.7945243618,16025.0778800569,16065.4264549578,15917.3870736918,15985.4042916285,15913.5066265863,15497.8033624607,14532.4094687227,15537.5756157075,15608.4989374569,16258.4865296097,16299.265501089,15701.8273674024,16295.4970310592,16066.2825637027,15791.1720934729,16641.8413982575,15691.2378022304,15892.1449151489,15112.9614476086,15997.1585905296,15858.6119197356,16014.2875027497,15806.8827132698,16008.679388294,15419.854635032,15459.2549247758,15314.2495573037,15545.8269023359,14852.078257869,15383.3709473489,15383.4812353832,15374.1120511822,16033.2989168456,15882.1088386539,15774.4388392582,14021.1767100781,15628.3099342911,15392.3658897112,16528.825010994,15991.5033037043,16465.4820974135,16386.6690375181,15212.5865589938,16174.6546874721,16134.1978154461,15401.8103012068,15808.4076321661,14413.2803284029,14205.0982120947,15038.0938989239,15263.5839855225,15709.509252022,16019.0886607274,16576.0433675821,15838.7385824525,15644.4487159491,16335.8801055824,16453.4219867094,15684.9686009126,13836.8216005769,13833.130419861,14537.2819172622,15420.9932278617,15441.7625395917,15749.022551308,16515.2732603557,15601.1848472696,15869.3018071059,13521.9979876589,16194.1069678082,15892.8544190384,13840.731030236,13601.6740092275,13389.2742419595,15157.6878573938,15748.6987380887,16095.1461724864,16536.762011368,15680.9590576288,15817.9740898501,15360.8144660669,15586.9457243206,16235.3345996992
,83.5,15243.4041414259,15366.4653366237,14880.3325783054,15303.9055612163,15291.2997248901,14005.3196648894,14679.8408400447,15155.7425078512,15103.9909321597,15509.0514748185,15739.2943275416,15980.5326095508,15880.3220170591,15811.8834285263,15854.4265440037,15677.9967099448,15742.397464095,15674.0141702242,15252.6522825344,14313.5286494817,15298.0486064646,15394.6635311911,16038.8611171796,16074.6566393107,15493.1881608076,16074.2288947245,15846.9993059843,15542.4675165968,16377.5042852392,15443.8400203826,15669.1707022198,14904.3809231204,15777.4219135699,15637.4916211654,15791.0720163371,15586.7041809703,15788.6246612185,15212.1410969552,15252.0345779812,15071.3423533022,15296.9149695416,14613.2461285738,15165.5120677608,15165.75536134,15156.6335125413,15817.6203626249,15668.2622313105,15564.2577334854,13814.9033740176,15403.2349741025,15174.6309565171,16291.2388547903,15763.5525919458,16236.0858786785,16140.8470557904,14983.7457953092,15936.3326360141,15905.3869292753,15184.2965032859,15582.1963389713,14193.98308087,13991.42163356,14817.2138898429,15038.4086902021,15477.2714705162,15781.5196312161,16326.2749976976,15604.4438522446,15415.4478127018,16108.2677916831,16223.7133166572,15470.364755056,13617.4793304922,13617.9274115366,14306.8814296731,15183.5032542275,15199.9940517118,15495.2910137602,16249.6246383782,15361.8885939432,15624.0997309817,13157.1619607721,15963.276805612,15657.3326013287,13606.2199360208,13379.9089235736,13175.9393854796,14936.0185848803,15515.0337179383,15848.2761405541,16305.8595944567,15465.9519423678,15597.4714463999,15141.9305450178,15365.291609419,16067.7549850031
,84,15053.0565847666,15161.8070493088,14692.4503876972,15064.4632489855,15044.5590605582,13784.2949724279,14441.3284988554,14913.6890262653,14860.8329665502,15290.9618215721,15520.1320318383,15776.232066865,15665.4579378367,15599.2323592476,15644.1980630262,15437.3451007993,15496.3444210069,15430.9123221601,15007.6289312586,14094.266338939,15058.5223192948,15176.7888454497,15817.5409188174,15846.2526506103,15284.9116577563,15853.5823431108,15628.4588685104,15290.9861607657,16109.8507367684,15194.079618513,15445.2814824266,14694.8214298824,15556.554749563,15415.0429839694,15566.3198140236,15364.9179802727,15567.5003097943,15003.9279040935,15045.1951046366,14827.0702321674,15046.9882928416,14374.2405319489,14945.1243115476,14947.1644715296,14936.685391444,15603.9571848455,15454.1575428253,15354.1828134174,13607.1198471187,15177.2438087766,14955.9524968317,16050.5603014247,15534.0052853892,16003.7890096842,15891.0751018519,14752.850662318,15692.8889369196,15675.1301530042,14966.1542493293,15353.5456747913,13974.3762615359,13776.9473815072,14595.6992091276,14810.1747498788,15243.3647703375,15541.2383781092,16072.0186384117,15366.5963655136,15182.6203724911,15878.8728055649,15989.0288090249,15254.6878306202,13397.9569426575,13401.7894380548,14076.1899587311,14939.6429708429,14953.3071247541,15236.5745641107,15979.6777789515,15119.0092022641,15375.4767533675,12776.5693639051,15733.0495886013,15421.8107876593,13371.2106682411,13158.2734067293,12959.5168922962,14713.0204908497,15280.2427605648,15599.4264371804,16072.574523555,15248.8184608694,15375.5240969116,14920.3122490372,15142.9295770285,15881.9714732372
,84.5,14863.5721355489,14956.5507857711,14504.9252737222,14820.944358476,14796.8728073286,13559.8149354108,14198.7972864671,14667.7090234335,14612.8951934756,15070.1039959274,15299.6027749648,15576.7401048074,15448.322952287,15384.5335355232,15432.385935096,15192.8134929939,15247.5351373974,15185.1084044018,14760.1236035963,13873.1162813267,14818.7512679846,14954.6279080211,15589.1491811405,15610.9280389611,15074.8615120561,15632.8562166228,15409.8430035565,15036.9849545435,15837.0688386154,14942.4216858044,15217.8727290114,14481.6334975368,15330.7289582947,15188.0590251489,15336.3896090848,15138.8384105733,15345.0503260051,14793.3356691503,14838.4637896877,14580.5080295358,14794.6008212177,14134.2890064971,14721.9874225841,14724.2213512349,14713.7606675425,15387.3701508013,15238.0621432966,15140.1065710848,13396.923961791,14948.4008074503,14735.7594753361,15805.8094681885,15301.8181646571,15766.9823593324,15637.1813639895,14518.3452437599,15442.4412734256,15440.9098008862,14745.1138961233,15121.6038822973,13752.5538295509,13559.3144452549,14370.686647039,14579.7059859985,15005.1586676132,15297.1431986752,15811.4766356811,15124.1308526798,14943.6521430178,15643.3076852568,15748.5393119673,15035.0180940834,13176.0116760924,13183.1778344883,13840.3202194265,14689.9116578876,14701.35499787,14972.3416193904,15702.6897371511,14869.6765296953,15119.9851409683,12379.6064020689,15502.3446647709,15184.0950735951,13133.1469632636,12934.4295914133,12738.5590179718,14485.8159733011,15044.3578729624,15346.7477850449,15837.3279374328,15027.4162729365,15149.8159590404,14695.4317338762,14917.1277358595,15676.9216374629
,85,14673.91315324,14747.7877492637,14315.3637460431,14573.6468127822,14546.2299486366,13332.705849178,13952.3694069811,14418.4113206696,14359.2413767873,14846.8976353081,15074.8809967394,15385.5781478079,15227.2336238539,15166.2720902467,15217.365596664,14944.3361743662,14996.3226952713,14936.8510234558,14510.1545617791,13651.0370973127,14576.7881625793,14724.6276187809,15355.0057126186,15368.2487267096,14862.1571748341,15408.9185843653,15189.3776783829,14780.8822146751,15559.8374172318,14688.0020161851,14984.1628509658,14264.5199560352,15099.207396265,14952.7553347713,15099.3984793393,14906.3325353503,15118.5493834718,14578.5053932645,14628.9985215507,14333.1013318607,14543.2939148306,13894.8353853119,14494.2453706709,14495.2231895389,14485.7541391214,15163.9312653135,15016.4209033232,14922.0237746,13183.9069981059,14715.6404895181,14511.7554768287,15556.6955360832,15066.5843161553,15525.7903451412,15379.4620298466,14279.2993406831,15185.9682069031,15200.8939462636,14517.2598022435,14882.6322316125,13526.4826853257,13335.2591202649,14140.8858505798,14344.0372167324,14762.5146497484,15046.0667949602,15543.1335085409,14873.4666737176,14696.3336997467,15397.3419408128,15497.8931797655,14807.7194089645,12948.667802741,12958.5255527944,13597.4327189568,14434.078795858,14444.3303359615,14701.8988582359,15419.3034313671,14616.1276056599,14858.4678738641,11961.7759620644,15266.9322317942,14942.1144848492,12889.38443454,12705.7039357266,12510.1279872372,14253.2998045815,14805.2541898884,15089.1790624432,15595.3430112294,14799.0724183128,14918.0224201064,14463.7576215399,14684.1392491135,15452.0862333277
,85.5,14483.3853099259,14536.2549623365,14122.4171637211,14320.8578108121,14291.5391656292,13101.5312511624,13703.6765415037,14163.2571965315,14102.7968967383,14620.9403135095,14845.9857842421,15208.6854302484,15000.8641006844,14942.2961879175,14997.8373518892,14691.5797945351,14739.8008283996,14683.6948430932,14254.3105858796,13425.31945014,14330.5016862157,14487.1454236172,15108.8336424618,15117.371253898,14642.3963695233,15180.1391853516,14963.5693428187,14519.9899863943,15276.9896360382,14429.3252297903,14744.3116112514,14043.1785127008,14860.2330933317,14708.0345220308,14853.7808893744,14666.5364050131,14885.4845410498,14356.1338745927,14412.0187414232,14083.8497182686,14290.3594144897,13655.9045032856,14260.715198254,14259.0709001919,14250.1497660487,14934.3122093401,14789.7332558668,14697.3710701703,12964.1206707115,14475.5480404041,14279.762771719,15300.9677219009,14826.3915655973,15277.4088219592,15115.5689895096,14036.4266141166,14923.3043415938,14951.834629803,14281.7207065321,14635.8972517283,13290.6449756133,13099.9369998598,13901.7008212592,14103.2080252663,14514.7563559655,14788.0114312205,15265.9740774821,14614.673546558,14439.9288618218,15139.0209248888,15235.2612822932,14570.2256806779,12711.2877185529,12723.2446712964,13343.0572060581,14170.2109204836,14182.0651211926,14425.5997941338,15128.8530650009,14355.7754036243,14589.3564940781,11514.5482933495,15026.8769759792,14694.9334891114,12636.4949464678,12467.0313246524,12271.9950491322,14016.9187246133,14562.6264361962,14826.6368249162,15345.0469054689,14563.3457999217,14679.7734330359,14223.7376506714,14442.539023422,15205.516126182
,86,14288.6650169721,14316.9576151124,13921.7597285723,14063.2661268242,14030.8933108358,12865.4992571355,13452.6020786795,13902.4455367432,13841.3576594913,14390.8504516563,14608.9158233355,15035.4098362233,14765.6271988717,14710.0579860754,14768.9385134537,14432.4500804791,14477.836089157,14423.2852935177,13993.6766737758,13194.0126851966,14078.5421147207,14240.8915836679,14852.0303468877,14855.7473862562,14413.4843950506,14942.5783761684,14728.5622294217,14253.5776617532,14987.3421969219,14164.1705524892,14497.9188589812,13815.6217047778,14610.9181688251,14453.2445486977,14596.615952077,14416.2722710481,14641.7060209185,14122.3811488241,14183.5611619158,13833.7324016049,14036.1194766401,13416.0906942735,14019.3349081409,14013.3594534883,14006.5880569206,14697.4446515112,14554.9513964399,14467.6572217277,12733.9927383644,14222.8842302362,14034.059423702,15038.7223823913,14580.7165650551,15021.8907453671,14846.9360248306,13789.551934016,14654.0104415945,14692.1646660863,14036.1563322001,14381.2101328155,13039.3230812575,12847.8324128722,13645.6753132126,13855.5241474216,14260.9288186601,14521.3246391255,14978.7265450635,14347.5150333523,14172.8102937631,14865.5313633532,14956.472847401,14319.0773829905,12458.79669508,12472.5760555656,13070.3216695378,13898.6496638701,13912.2477320039,14142.1733267783,14827.8475733141,14088.6692237413,14310.3481750499,11029.0287854462,14777.973484574,14437.5788378678,12366.8722012678,12211.1406081234,12017.8671553078,13773.2900879996,14314.7207748774,14556.7948021563,15083.2898329787,14318.58948748,14432.5029263938,13971.4043079965,14189.6979001436,14945.5611669636
,86.5,14084.6019601955,14082.8030469094,13709.8320084096,13797.8747917267,13762.3950078481,12620.6144947665,13194.9863546049,13632.4719898297,13574.4497215219,14153.0084829093,14365.8304213236,14865.9728185489,14515.671792691,14463.3133320252,14525.4380002426,14164.346698542,14209.0613245085,14155.2076866666,13722.4346847834,12949.3645853396,13815.8148090878,13985.9164624776,14581.3958183961,14583.125050122,14169.4699619738,14689.6583563302,14477.7900939843,13977.4294706009,14687.0110556117,13890.2166736718,14240.5264258016,13577.1409515026,14348.8038898971,14184.8539766509,14324.2513627307,14153.1816789449,14380.8293856864,13871.2384155576,13937.3349790647,13576.0953245446,13774.6349163963,13172.4815267101,13767.891039473,13755.2505821244,13752.7333367167,14449.7895221216,14310.2357393493,14227.0998656347,12486.1907766811,13949.6151395558,13768.9069707467,14767.8797266144,14326.9813460919,14756.5608526449,14571.3416666142,13536.1871326299,14377.114079325,14421.2270881308,13779.1659820493,14115.6680479469,12764.9221513594,12571.9973640843,13364.3934750038,13598.3745505441,13999.6688646976,14243.779619374,14678.9380399601,14069.4183400726,13894.9334822727,14574.1583018438,14659.2974564459,14048.6115428526,12181.6152230899,12198.3477224978,12770.1474112565,13618.5116965831,13635.1047492546,13849.4397817291,14515.8623861529,13810.8061206622,14019.8604743693,10481.7655900619,14520.6182324382,14168.9657387672,12070.8461822792,11929.7916440718,11741.5374025652,13519.65857683,14055.4172322017,14275.8784003472,14811.1712405083,14064.3913457937,14174.6924939706,13706.3272720503,13923.0064892919,14669.6435486498
,87,13867.7563598101,13828.1532852034,13478.198000458,13518.5655115502,13479.7352411925,12363.9825622029,12925.1432667802,13347.717114861,13293.0708008977,13911.2333471938,14115.8691578989,14689.8450049162,14243.7485592112,14195.782009162,14259.2977834298,13882.3938550354,13925.3847891488,13871.6130985796,13430.9426279637,12672.5590907542,13526.9559736479,13721.3322613194,14301.4030900649,14300.1454443498,13902.5687787348,14413.3240316652,14203.3663921314,13681.56543274,14368.0591981999,13596.7264570039,13970.6739759009,13325.2477065556,14072.9064398891,13903.3359235388,14038.1041629154,13874.9466036014,14093.1200096885,13595.4140196206,13665.2064228245,13298.5133956873,13495.5035557265,12914.6061006603,13503.55608978,13485.3506149617,13485.7761348939,14192.9916290754,14056.2714408916,13977.0407697619,12211.9059547627,13646.3545968419,13474.1258216655,14486.3151259715,14062.0844382233,14480.8466485118,14283.2095617477,13272.3541502478,14087.1913142576,14139.0549379854,13511.9642635317,13840.9346940867,12457.2997584737,12261.1532302868,13046.5997483991,13325.5950489709,13727.8532440168,13952.7895930206,14364.8016313672,13776.6849251948,13602.4439449302,14262.3534896456,14341.832983285,13757.3898423257,11868.6276513162,11890.1973342684,12430.8246379439,13322.7750364761,13344.2863393675,13541.7037688227,14185.788498111,13515.9673893083,13711.6059940966,9878.60765838656,14254.8188870609,13889.4690891553,11734.7966672858,11610.9084971643,11430.8677376372,13248.4591463849,13776.6595777204,13975.4723774653,14523.8548025183,13799.7082822717,13906.2661266514,13427.8607047529,13643.6924025066,14377.2811766042
,87.5,13636.5310422156,13547.0942602204,13221.8444770099,13204.2076178634,13162.7158292956,12075.0832015574,12622.2465631938,13025.4733324161,12975.075664677,13659.7761705244,13855.7340174497,14494.1691134233,13941.5014675863,13898.7722919193,13961.7984803328,13565.0438824681,13606.6802703874,13551.1755693961,13090.9106115652,12331.3614869713,13179.0101048151,13445.9723367467,14008.0185094924,14004.3383012789,13602.6325027864,14104.9127704891,13894.5159317114,13339.6041186901,14001.2531828537,13256.0811452788,13681.6312356277,13050.2437774874,13774.3470459839,13603.5862567212,13732.5526018993,13576.6110913701,13768.516441902,13282.5271995657,13355.4227613929,12969.3790847294,13163.7349518293,12616.5888469211,13218.5849481214,13194.7670321312,13196.6156721589,13924.5005148305,13791.3272770418,13714.7444722454,11898.4368319376,13299.1523201887,13135.4702555037,14186.0009319863,13780.6945481532,14185.6388570867,13962.1384668573,12977.6805466455,13759.6914552744,13839.5331900636,13231.4202692164,13553.7215749536,12102.7180387126,11901.7585053405,12677.2034289286,13025.6747691988,13432.9098358237,13641.0165648211,14014.2238847649,13451.1359642985,13272.5613498572,13919.0135832366,13994.5042786927,13436.2471622976,11504.2510423087,11533.5161921841,12036.7912300349,12990.4908043113,13020.4474964245,13200.6489350342,13810.2286615404,13176.9568399794,13358.3422426031,9232.09700211447,13976.7880213132,13594.1632694119,11341.5703176082,11240.2497783341,11065.0779466632,12931.6362064804,13452.985964466,13627.7556385317,14218.6938347825,13518.6595018175,13620.6156734866,13131.0428112466,13345.9090314502,14063.2609193235
,88,13380.4184925011,13230.0265628935,12933.2393857075,12810.1638843406,12766.6352126008,11712.095745632,12246.6192695703,12627.5079602816,12573.7804126418,13392.3558621132,13580.0542170533,14258.9813424822,13599.0010298284,13562.4750020385,13623.9307311463,13160.5933090559,13201.3578085639,13139.2636615902,12692.2184017541,11912.6835461105,12757.0577329141,13150.3802201781,13697.6853259611,13689.8837550719,13261.520978764,13753.0987501137,13538.6034179784,12909.6234968701,13544.1161304274,12825.5486305925,13363.5347997563,12738.8706848133,13443.7349472469,13275.8052963514,13399.3049254051,13248.8444356402,13394.3947056008,12918.7646397392,12995.000697418,12578.0553821036,12769.0182814178,12267.1491093937,12901.7866683387,12875.1843469547,12874.6007944826,13634.8802439553,13506.6650678567,13433.381626221,11535.5202678835,12893.9658091311,12738.3736373815,13858.7011337938,13472.9836044906,13864.9483681447,13555.0664162745,12602.1329206019,13339.6106099116,13515.5165113698,12927.9512774181,13247.5171257034,11688.8560836015,11481.3111111814,12241.2657956854,12685.410446219,13100.1247265269,13296.324405986,13571.0541067919,13037.6940552391,12851.3002403277,13531.8926282194,13606.2165399375,13074.310720078,11081.0907664433,11117.8897438525,11578.1135814158,12580.606120956,12625.7037173081,12785.3207144944,13349.2436832144,12755.8457610188,12920.6439069541,8561.82341216374,13679.0262193224,13280.7613988897,10885.5776321549,10809.7347127091,10633.483459,12514.2503139603,13032.6369409123,13180.3975500456,13886.4800967427,13212.2669389076,13307.1788114186,12806.4152980972,13021.1787193631,13719.1077691986
,88.5,13073.1117971204,12855.9810532345,12590.5485229633,12286.60371117,12239.7631749717,11228.8986749832,11742.5454560261,12093.7842740546,12028.8778526385,13090.861320785,13273.8563665046,13974.1327637256,13189.5971034827,13156.1335861869,13216.8389912397,12621.2425985704,12654.4146985057,12586.5588782395,12215.2144788952,11399.2134591462,12241.741667923,12811.9019141627,13347.5886372074,13337.3927702303,12850.1973015763,13325.8203057735,13099.1554189255,12331.8167545208,12929.6568482202,12243.2294259502,12992.9528005371,12360.1793066188,13055.0101987514,12891.6314962626,13015.5538196263,12873.312983481,12934.8498276639,12466.5007117704,12546.3361905982,12107.7669693669,12293.6079744056,11851.1160064892,12524.0751498381,12499.6554792549,12490.2894566167,13297.7532955396,13181.0904185547,13113.6071203769,11099.0001305545,12397.1803058232,12248.9266362672,13479.0113759154,13115.1970738228,13495.5951351146,13014.7082315935,12103.5744463709,12779.9211206096,13141.6576679774,12579.4034510995,12902.3866801868,11190.0479384986,10972.9946515715,11706.0879981144,12273.9275263053,12702.2061050574,12891.554503578,12994.3896404909,12496.3383130451,12301.9590146239,13075.0053855842,13156.5802612617,12653.9985789938,10581.9382364767,10620.1456023286,11033.7114406897,12063.1071990765,12128.3995522985,12262.8134404862,12752.2161839649,12200.3116299942,12346.1861216378,7893.18556351189,13341.8090856571,12934.7394817924,10357.4501008953,10306.1600116565,10121.4830630772,11928.3751966406,12442.192900427,12548.3750154659,13502.084894386,12852.5282876599,12937.963267369,12433.2672403431,12648.5244671011,13326.7490032975
,89,12647.1889334652,12363.7880230087,12128.5395005983,11599.3828402909,11547.7266663227,10594.5380123243,11062.8372237673,11376.2464914099,11286.133244253,12698.0830313237,12877.4965631757,13590.011549164,12641.626197413,12603.4212006364,12663.4700596254,11922.7176505816,11940.9599056247,11865.4786588406,11634.568433887,10773.9451275332,11607.0062491791,12363.404450999,12898.4031870191,12895.7940636882,12302.2627995808,12747.6986736712,12497.6621666908,11562.5253519319,12108.6871426951,11459.5304856648,12511.2177753523,11847.6913944243,12541.3178336755,12381.7068028375,12518.1188656544,12393.7460497332,12323.3559450997,11857.4784969728,11938.3543096235,11536.0271525937,11715.9776952868,11343.900507246,12023.51962191,12010.2711306113,11979.2007675785,12840.5030247819,12751.9028227584,12710.3786135389,10541.8224425276,11747.7605731712,11604.6931111864,12995.4464298577,12660.6898321823,13031.8052584415,12283.926722657,11427.8174363855,12021.7919172729,12649.7819283773,12124.5111829884,12470.5262903287,10559.0353032868,10329.6505317222,11017.0287255411,11731.9060073717,12179.2498375029,12364.4034077938,12251.0668103232,11796.3339955133,11591.3545148829,12484.7761275164,12588.4527687845,12130.1818330369,9975.58089412808,9998.14905582247,10361.2137389221,11403.4523907567,11494.2484728816,11601.1064183498,11962.1386343158,11456.5477719547,11578.9834312989,7272.9920367779,12898.1015026375,12501.7866493298,9734.79909604733,9697.00056177157,9501.38682100086,11141.8865907407,11650.4123201176,11699.8302895576,12986.7279477049,12362.2493395009,12431.2813980943,11954.2668158421,12173.3375178085,12835.565515223
,89.5,11969.6436746342,11635.4902358036,11434.3747367245,10725.5574433861,10667.6765000338,9789.14302724999,10198.8823452509,10462.7164326604,10341.7705232981,12073.3268565188,12253.0867785185,12966.6235551293,11842.5065410812,11796.1721496345,11855.856098037,11066.0724372569,11062.0201014461,10978.1022240273,10909.0731362887,10032.1240993436,10822.7262165989,11697.1629252392,12227.6998423278,12246.594635074,11514.9247331942,11912.8044511887,11640.4631536965,10603.9883574361,11077.049115783,10476.8961989911,11828.0187111176,11133.4146883019,11819.3476102869,11645.4165557429,11799.5666251801,11707.7720331189,11472.0471600439,11013.3484074346,11092.5756011411,10833.0013050088,11004.2813320041,10708.5341834671,11307.6920214802,11310.0370131245,11251.9890426269,12147.590089115,12098.8225117615,12105.6275853453,9801.69232547902,10877.6239125015,10742.3885696023,12323.8098652435,12030.6591913308,12387.2696223841,11338.0230504001,10553.3789667629,11044.6366133239,11936.0747476358,11461.4081635563,11843.0163932694,9753.33943418027,9518.28785260466,10136.9367703893,10984.2856006649,11445.6867161986,11621.6519924075,11335.3058231715,10932.049804827,10717.8508381727,11685.1209283613,11812.2606708617,11417.0243741415,9225.29942980952,9221.39134996009,9532.51803826998,10588.9980228124,10708.123280131,10785.6963429884,10973.5891715085,10520.2515079544,10614.6799993614,6691.81549211005,12217.1012301771,11852.4730016329,8987.93921792307,8954.50639768349,8762.03477576976,10158.6621000777,10657.6482696194,10637.9793245756,12237.212783668,11647.5550567604,11695.0206299827,11279.9214234772,11498.5900432349,12143.476350661
,90,11020.7833338501,10669.8023038263,10502.2759458485,9691.70136203511,9624.62328150663,8838.14675715537,9192.37019374945,9398.31773538301,9243.3074670458,11189.4569337105,11366.545424322,12056.833175328,10800.1741392263,10745.708355926,10804.1803045609,10087.8986396498,10052.4270355131,9960.66969951236,10042.0547770275,9204.20624943251,9910.39979883419,10795.1618392273,11309.7459192173,11354.0344666634,10500.0076513216,10833.7979679917,10546.437557104,9509.66701765429,9892.93555165834,9349.8744853696,10917.3446742827,10207.8630131237,10867.2801468771,10685.0897269523,10854.6003506079,10801.092986598,10399.8160113292,9961.04970270835,10034.9923440565,9994.42667531936,10155.9151664323,9925.91904510489,10374.5874291024,10394.4257516128,10311.0147419426,11199.6054640657,11194.4545612482,11258.9345184741,8907.1116479234,9819.10394959278,9696.55845344911,11412.9856175168,11172.4408427259,11507.3748860102,10208.1003791879,9511.92057539242,9887.4222328957,10994.434921272,10580.4651122314,10991.2371703433,8809.24459776964,8579.37494709912,9108.47277660422,10040.6586788164,10502.4899430545,10659.7234435284,10282.6890975778,9935.58508986621,9718.78764351059,10690.7675582751,10833.8789999129,10513.9774959123,8370.61012944919,8331.65025834077,8592.44791773867,9638.3897205752,9785.45099055895,9832.89518784252,9840.82992038133,9442.90951655717,9506.41473396038,6163.80009227709,11281.0809693591,10967.2088893197,8161.48349971769,8119.9124341723,7947.19111301704,9039.18721135968,9521.0366890752,9425.95426331547,11246.1810791835,10706.4850035204,10730.7474815024,10401.0522689322,10611.1981793355,11226.1308799813
,90.5,9827.74785719896,9492.05638906265,9355.79469590358,8586.54016969462,8506.54050121881,7825.31433187514,8123.28292004103,8265.83557836642,8083.92305057105,10061.5448171322,10230.6145650418,10878.5636468021,9545.37115886852,9483.76610141863,9540.16798376272,9079.12409104052,9004.57211526651,8909.98033351814,9052.64617532476,8303.51994833718,8897.1062114789,9679.56615655311,10160.7263593884,10231.036062244,9289.86132002311,9545.73528782331,9256.67663324747,8368.9855424169,8648.09563514975,8171.57590173848,9798.19711128019,9099.94198301192,9711.04150186933,9527.3175510551,9707.76500849212,9694.53966355133,9148.32497756654,8745.33299697243,8809.71142190707,9034.04409005294,9184.20893698196,9009.77037165187,9253.44491597732,9287.58387641046,9186.05966096041,10018.5478609,10056.5015553213,10179.4577151172,7894.13984836106,8618.76939100997,8515.26121027974,10276.8822218865,10096.9511592917,10397.0226311808,8999.11642838938,8400.40226819758,8662.26799960733,9845.55372978346,9500.53156995587,9929.05627684257,7771.26703488341,7559.60188002218,7983.94941637344,8932.14002584632,9380.4828315436,9505.80608743372,9189.47594861714,8897.68472480211,8686.13299216812,9526.97338293582,9679.940419193,9443.32317641995,7448.13456446905,7370.69395314063,7585.07897413727,8612.15260955409,8775.3930831421,8796.01578719878,8648.52354426005,8305.33446636734,8338.57266465334,5704.38502084996,10107.3297000088,9859.24036070432,7288.29351965197,7230.07189028735,7090.83673920796,7894.76921131946,8347.55544764531,8174.6888725338,10036.7963715215,9560.77037137821,9562.03800976445,9339.1293900613,9532.50317543496,10103.6447385231
,91,8456.08486476887,8164.2825509145,8056.87845359863,7517.25863920647,7427.89780137204,6852.39953140596,7110.91380989678,7193.24410191663,6994.77863912566,8736.9317126604,8889.51374597706,9473.63169064291,8152.27223926874,8089.69022704903,8141.42185263713,8119.94481538885,8004.67098398746,7907.48731841251,7990.5376616021,7376.78912186093,7835.90761219896,8408.14208975262,8835.50571987068,8927.35426518341,7960.6800577613,8133.27939918626,7864.2323947243,7308.35031325525,7484.89152854735,7074.34703156598,8529.42218348202,7885.52548492654,8417.15455669225,8240.50958506233,8418.3439713531,8440.36444596835,7810.78068509829,7461.88413682197,7511.93694502841,7995.41267563926,8133.45639237321,8000.36467559357,8014.96413922564,8055.27668737388,7948.45726602363,8667.085783583,8739.50644515694,8912.27978061312,6832.75530834847,7369.18801915598,7291.06212450021,8979.00509697336,8863.14122783626,9113.67341659556,7813.18171081806,7311.65407727829,7475.06867813291,8550.87829633523,8278.5779838113,8702.19947670516,6718.15297808849,6539.18012523906,6856.32377196285,7732.39800060772,8145.88921869139,8228.66955576444,8123.69640689951,7884.51868831747,7683.92132047806,8262.97019399433,8409.92224166555,8254.5730024058,6517.34303274148,6411.29572838416,6583.77636791086,7583.86083149282,7753.75387790525,7753.52215026901,7511.53179221592,7220.19155128061,7228.81466938774,5310.64589842855,8750.83333520859,8575.67766176242,6417.78960858185,6341.90690808811,6249.0261991909,6872.87374010858,7291.85371084069,7064.78708774841,8673.17223497804,8277.85069583288,8259.02123228441,8150.75485772849,8317.01534197022,8826.43677158316
,91.5,7061.49469088744,6835.94621445896,6756.66860434678,6567.42148916857,6472.08837228263,5997.37016875482,6262.05011636794,6291.24901277697,6097.1462059144,7345.69110823331,7471.05541775971,7958.12465324081,6791.00509957001,6742.58649016796,6786.2596951815,7271.03418070195,7116.89399726927,7020.68380313131,6932.21870668396,6488.50931481779,6805.6728202909,7125.87812563557,7469.65738997093,7560.75225038273,6671.72314597283,6775.33901885061,6554.42058729393,6433.74352544727,6521.59364808576,6175.11398811563,7247.54726557667,6716.24742684942,7138.52355800241,6981.5856135428,7131.82831878907,7167.42637742603,6550.08487033324,6275.93970256461,6312.55068098011,6948.62261798361,7072.33836873576,6966.67779214797,6798.78553536296,6831.54200652475,6743.42848751143,7304.87700172187,7382.20094023587,7567.64794009102,5849.09315604423,6225.7604526348,6179.88162833377,7639.92344243242,7581.2023959479,7768.48565741289,6780.35621253911,6368.18468961897,6459.38534971865,7259.06630288522,7049.33219916716,7422.76364415112,5778.70893007383,5647.27988368919,5873.05034209913,6578.98914813728,6934.26794035286,6970.88770509485,7170.20978704663,6976.16586574029,6793.27279314492,7045.88272795406,7160.87276976412,7062.82580539804,5680.46577960643,5573.19907648472,5712.17292493674,6640.96365989913,6805.40466669607,6790.28029679977,6559.76886954947,6315.30280743162,6306.83313463335,4973.5992991365,7357.9053832485,7239.68178891513,5637.27528425553,5557.44142502753,5511.3425916621,6052.9563209685,6433.70110582387,6178.90267864149,7325.98990288327,7024.84292483562,6998.94489405345,6963.41298033391,7089.97501870885,7513.53042660008
,92,5930.17356847493,5772.69365760368,5709.93882517301,5810.34856534969,5713.50486403438,5325.28772968173,5622.51217669793,5615.89368543704,5436.82847081401,6174.32976533167,6263.68289772623,6633.75102739378,5720.0888885632,5690.50827214287,5726.466126966,6555.08077922961,6369.72845737146,6277.20066839816,6000.71738188978,5716.50532684662,5921.18334990209,6062.82433234006,6315.77428720498,6382.29257282474,5663.16835494778,5718.20641031185,5550.0245652032,5780.15007756401,5808.15202416225,5513.14714359847,6152.17324794594,5750.52246688473,6062.99419120959,5967.56706991621,6079.90497566501,6101.00323972352,5580.61774164741,5378.34842348059,5404.04352161781,6001.31864967238,6108.27753379909,6020.6933366515,5811.65352268241,5828.1711035314,5771.5498284329,6175.63239564642,6236.82912610083,6394.51942079929,5105.97910306342,5366.63447023907,5349.813703653,6447.9686303694,6428.71202301271,6551.26702881022,5975.47699175249,5635.94749563267,5685.04040007357,6193.31441541909,6028.18587395045,6318.8532273303,5081.78679647396,4997.03397814186,5156.57609183779,5650.66586985563,5940.27435219179,5939.97276899105,6365.2295219828,6208.27058426539,6047.221326105,6055.41287181401,6134.81070468079,6062.50991449874,5060.14457313293,4961.69653166963,5078.62140403441,5841.36255465753,5990.80508914792,5965.61015680263,5843.06503732086,5635.54530446667,5619.46138398452,4727.22355376688,6201.41128647438,6123.95551910214,5061.1103336156,4981.60779085122,4950.88248793598,5460.05437025453,5803.42178715604,5547.731310301,6223.46505611935,6006.4071142252,5981.97672700476,5972.54137082153,6060.6643785396,6388.81559769332
,92.5,5116.63399544945,5011.64024222734,4958.64109850238,5266.91770733525,5177.11840123546,4855.34081017406,5181.21418117941,5153.82769190006,4999.57727283732,5302.24203802947,5359.24544327258,5627.8011216411,4964.24915081732,4951.36138940688,4981.6062089653,5969.74745077051,5764.57898003357,5678.63321388401,5287.0132052978,5103.59372206775,5251.98529836727,5279.14362930157,5453.61633604877,5490.67803467661,4954.88022046877,4979.38195044664,4858.25142704315,5327.80132445986,5323.82817732092,5069.46892393355,5332.95292459883,5049.1172954819,5274.14075462407,5231.286993608,5309.19407468743,5306.72578326526,4912.69721463526,4767.15940657906,4784.55488285059,5263.96955711498,5354.13811646261,5283.73628583357,5097.72238248527,5096.70390623529,5070.98922420985,5344.85522987406,5382.67791727724,5496.8877014767,4597.97290410867,4785.24300098912,4790.18875986277,5542.39369518988,5542.83775214139,5609.65504526673,5408.48872360041,5122.96986900368,5157.41036286256,5400.25603873126,5264.87712513593,5477.75216940835,4614.21824278942,4568.17740881414,4685.74176497357,4982.25858564231,5212.49896711203,5187.57794020722,5717.86809106748,5590.61433154171,5452.68171651592,5320.92603467387,5372.38648783666,5305.82692479375,4641.13295000997,4556.7572166757,4660.35775678741,5222.67228895329,5348.09351676643,5317.68094970977,5345.78566594683,5166.52516671121,5151.74746257429,4558.67638427424,5348.67669886564,5297.2480408854,4671.77900917834,4595.4889593584,4563.03355344409,5068.54393780294,5377.06262401395,5142.83745645093,5415.89239640317,5262.4393439225,5243.44662338776,5232.9112159621,5292.17663198762,5538.36709199146
,93,4607.66345685183,4539.5749722885,4491.15366645165,4907.35948155004,4834.20136287073,4559.23978200124,4902.2048370777,4867.82150710376,4742.08937913252,4729.64387323489,4761.71244504266,4949.64979439838,4506.03187217166,4507.59767974876,4533.68881984153,5499.18249562201,5287.13512136423,5211.22127448255,4800.88812198951,4678.06943358401,4801.77683495733,4771.19428854334,4885.41337778629,4894.11413675307,4527.96229418244,4538.81286062986,4455.65069630823,5035.98547632627,5025.78084229394,4800.47517108998,4795.37478537357,4605.63605358006,4767.55553362406,4766.44312375093,4814.55460730437,4785.24842972881,4521.90719540268,4416.42170410328,4428.38908262238,4754.82027133149,4830.06877921545,4772.80542623558,4647.43589995088,4630.855285122,4632.332187697,4808.63778165281,4821.44779004605,4890.72258095548,4303.14237948423,4453.73765958286,4471.94498009463,4937.74153780795,4943.93769025075,4971.7303628338,5040.681775983,4793.59609378971,4831.5351881881,4880.01025509797,4762.32985149501,4905.91422038492,4350.41553176347,4332.3629662123,4428.62136665476,4564.53163715927,4745.23975351544,4709.28595771269,5221.00697775279,5118.16215832022,5004.0401382974,4848.75689227016,4876.0609240638,4799.93541123725,4399.15324414969,4332.24840284102,4428.97988042074,4802.68421428268,4906.17420155121,4874.43074786498,5030.35085614683,4872.80265773788,4866.15538449202,4447.21466672986,4799.03720328478,4759.51975191722,4446.62921676581,4375.78044309417,4332.65103057403,4827.50231002635,5104.55326933887,4910.46201385045,4899.68560316523,4790.03309526942,4779.12474423899,4745.26965450943,4784.83690050639,4965.98164325554
,93.5,4367.05457570527,4320.47807886364,4272.28619319768,4677.67371794733,4626.17638874747,4384.56869535259,4723.28107314116,4692.54131834538,4596.62259636429,4430.84080746481,4445.8776400233,4576.08902752335,4303.03908623838,4314.4078008189,4338.42222715406,5137.95787047268,4937.6670172464,4874.96146030855,4515.70675688469,4417.07103782186,4542.07758137389,4508.00549474494,4581.83580003275,4566.64556287859,4338.95757015728,4348.72462900369,4289.84020989817,4841.55149199411,4842.76449577883,4639.42505305803,4506.94476390977,4378.76172610216,4507.29976527023,4535.82074911802,4564.48179866058,4509.10696194469,4355.41694545809,4272.25048090938,4282.80555121924,4450.48170518045,4513.81430562841,4465.72542836027,4423.57992200266,4396.09263546805,4417.49485417502,4533.05840497935,4523.44116390583,4551.44398638188,4180.34103231202,4319.20316484664,4342.49792772554,4598.58645521289,4599.42857567064,4605.85900642392,4818.57971471499,4598.90001269141,4651.45552081072,4602.50612165548,4492.18763110584,4583.40466614123,4243.74254086999,4242.22483078775,4331.40189940928,4358.85788636277,4505.22845325917,4468.793666259,4876.20145464765,4792.7464862504,4700.96403123693,4602.20098817589,4614.62624146948,4522.43604945279,4297.09890358444,4244.12804310212,4339.46259866527,4541.68505609069,4626.32268635127,4595.60862144641,4837.76660618097,4697.30813798907,4702.07251817006,4382.02308711422,4521.33478392703,4482.88088443508,4352.77938112287,4286.48899229412,4225.2559043686,4663.4512212006,4910.14844094008,4760.5957291635,4640.36762310657,4553.00504081234,4551.24105736074,4482.10266600054,4511.77945561938,4647.56198536754
,94,4312.35992414964,4273.7574423646,4221.0089260475,4537.00722791749,4510.40040587952,4289.61565699743,4592.83727938619,4574.13376103155,4501.34232699549,4336.10167290276,4345.09962430022,4443.34201762338,4263.16843079326,4275.54452530917,4300.48857365198,4859.64440159239,4684.5027403975,4636.12707020598,4386.70186630111,4281.65537063851,4426.89868259252,4414.39601296198,4471.43256268228,4444.6443447433,4301.94702670664,4312.29987369433,4261.87638989543,4693.24129433643,4714.2837170681,4527.1685254183,4395.18216381539,4289.05382239111,4410.93865441615,4456.83365439188,4480.32893405673,4408.95830593555,4324.81759040655,4244.93351116587,4255.4672109514,4310.49405090371,4365.30319382368,4323.57270318085,4351.23032187692,4319.4743301305,4349.73507177288,4435.63129804869,4415.22182620496,4420.96756285013,4158.53045506977,4295.13674680547,4316.20923268408,4459.66224407202,4449.51014287456,4450.8814241879,4677.0620866177,4477.67984549535,4548.00198819757,4491.18723533788,4383.70925038365,4450.19336716589,4221.58955707436,4225.07781651017,4311.37792614581,4291.11003691265,4420.49735871071,4388.58528644304,4641.28913381562,4573.74997537634,4499.98306547508,4501.97976379001,4513.74991580875,4409.84598103254,4274.76041637171,4224.14609294078,4321.06861539756,4391.90584673774,4462.77029789151,4433.12804999789,4704.20046107935,4575.8268419418,4593.63735584488,4350.1192473362,4438.32207311392,4401.49548274921,4336.78000684408,4267.98763054624,4188.23904487613,4539.0211836826,4755.54607029885,4650.6931118557,4548.21005869269,4464.7623245357,4467.4107289183,4377.98685015027,4407.18537734981,4520.15422424481
,94.5,4292.46148158714,4256.91623407158,4201.62504331846,4432.57335898395,4434.60158297111,4229.87199608717,4473.95101609997,4467.99553390199,4418.58014461177,4296.09767319145,4306.8635919555,4394.243190127,4247.48415400781,4257.60367666814,4284.2543450288,4613.26366026124,4468.97633940704,4437.9101501788,4339.10298531616,4213.73606283488,4382.95838714106,4365.83977467865,4419.2090941586,4393.34155697318,4286.89556827672,4296.91815101924,4249.77405108965,4554.66293642708,4597.43461642535,4426.19587125683,4350.72142835543,4247.37004268514,4375.61482955347,4411.75260034228,4437.72506260747,4362.21032771627,4312.25582370063,4229.70854265477,4239.83370666783,4265.56115925214,4315.0652866665,4277.21531715564,4317.62505654129,4286.44051846801,4318.18706763889,4385.78645948542,4363.93448210392,4365.5522386123,4146.75531580688,4282.30114315589,4298.02944126872,4417.58813959058,4397.03750144148,4403.28755512494,4565.3434424525,4384.44372162707,4473.71421867538,4421.83835554468,4319.2549769927,4381.00295839811,4208.27164853576,4212.31166153415,4295.75365689227,4260.84971636205,4381.23639743598,4355.45995973455,4456.37632830088,4403.71923038521,4348.68432077609,4446.55907688947,4460.28079291384,4351.37435460502,4259.06103093621,4208.83037400478,4306.7625694442,4311.15872575728,4371.05824844267,4344.4876167539,4585.08337712034,4468.6238702069,4500.21239109189,4323.47694686808,4406.04427877559,4370.7078631147,4328.09930518842,4255.24891723236,4171.35902396317,4423.32265763794,4608.79904895558,4548.40240744306,4499.72907040233,4413.82167884077,4418.76338355324,4321.12823645918,4354.14356067814,4457.93735105724
,95,4280.32002587372,4246.87741529537,4188.47572573538,4361.85447011691,4389.31108193753,4193.49660442649,4374.83973724622,4385.94217725011,4353.38631058309,4269.79407766854,4286.73198649347,4362.79647572758,4236.7621871328,4244.7954055612,4272.71818530798,4481.96188073001,4383.31999970223,4366.59578765645,4317.42557364001,4186.37977016852,4364.48973224534,4335.56747314484,4387.18791603447,4365.21501539821,4276.67916313789,4285.5707143992,4243.11599156011,4443.88675783284,4504.26328420697,4348.08673878664,4327.82767120515,4221.73360364201,4355.72712140015,4383.08940437049,4410.26190793466,4336.69754510259,4304.06249284442,4217.42226905349,4228.8541966857,4252.34899159843,4300.10649627766,4260.00525407711,4297.66390628902,4267.59570250709,4303.23093203971,4352.48217188102,4328.30257721407,4336.699111939,4136.53709914206,4270.81631347668,4282.87774468986,4399.95309030184,4370.72908598328,4386.24702808854,4480.28535734214,4315.89761685681,4421.38134355174,4380.88114502212,4279.38554507068,4341.80212434537,4198.80004456719,4203.00064909644,4281.37367571175,4247.28914487165,4366.34177557219,4339.85545173756,4397.86086089327,4355.55726706686,4307.83151395677,4417.73341027977,4434.36157127879,4327.19480691516,4244.10389938712,4194.65296289479,4294.76902292139,4277.11136868576,4333.95837795206,4307.79175365974,4494.82154383538,4386.5075944009,4430.55238243029,4302.9237651585,4388.51595227577,4354.83921203936,4321.39337621776,4246.02614784658,4164.22773239599,4338.1355076148,4489.72962784705,4470.34673727837,4467.64927087736,4379.69349116703,4385.92811436297,4295.9284327261,4328.36971569392,4427.39138354777
