,Temperature,A1,A2,A3,A4,A5,A6,A7,A8,A9,A10,A11,A12,B1,B2,B3,B4,B5,B6,B7,B8,B9,B10,B11,B12,C1,C2,C3,C4,C5,C6,C7,C8,C9,C10,C11,C12,D1,D2,D3,D4,D5,D6,D7,D8,D9,D10,D11,D12,E1,E2,E3,E4,E5,E6,E7,E8,E9,E10,E11,E12,F1,F2,F3,F4,F5,F6,F7,F8,F9,F10,F11,F12,G1,G2,G3,G4,G5,G6,G7,G8,G9,G10,G11,G12,H1,H2,H3,H4,H5,H6,H7,H8,H9,H10,H11,H12
,65,20566.9487425314,21140.6280920726,23033.8674024991,19843.25157088,19948.2897934785,19781.528328159,18712.4416814823,18803.1103898143,18305.0222810307,18889.8220215125,19438.0255173673,16674.458712512,19671.8460023007,21528.0301711301,21589.2457766328,20184.3693959097,19340.395720472,19927.0437473031,20107.6901248862,18965.6583897887,18672.8024217627,20610.3531353099,20611.2273614083,19953.0255257774,20595.5223393088,22715.1191846209,21410.7188438503,19136.089290782,19192.8393500459,18649.629691848,20080.8103616539,20282.8015237838,20337.1279801343,19919.9484169992,19957.8102436744,18560.9531790499,21842.6418288569,21981.5369009595,21914.1765512169,18897.0453995786,19265.8582433353,19286.9376484073,20633.3928050361,21607.0209346514,21457.5998034499,19285.9712633667,19284.5950989373,18973.1628753399,20783.261838201,21599.6790867684,21847.9510488972,18759.7828133573,19546.8647882954,19509.0316845062,18880.3427925958,19021.88657904,19724.3986794567,19733.6219783084,19705.3639836108,19352.6279383862,20475.1538066405,21364.2163987106,21319.2162764016,18789.0758248119,20573.8939467561,19521.0258332092,20639.0559192,19665.7305228219,19753.5356930999,20344.0505809699,19485.2517926007,21137.7623335837,20396.2753458711,20492.2966985801,20406.9558742568,17740.5382176992,18051.4073607415,18855.9427354767,21154.4240828535,19074.9801849442,19575.5844396336,19158.1269117023,20167.9162309191,19303.6264339569,19002.5802177275,20905.0497866965,19465.6710616444,19025.0215682007,20619.947872191,18834.2383982213,20643.6069103167,20663.9612020635,20692.8606237113,19156.444282472,19671.7764271997,20018.5961711923
,65.5,20480.5046153022,21071.5996515695,22947.0361124946,19838.7083492067,19937.3966361748,19775.7954552734,18687.0228706128,18772.7947583436,18278.6517327863,18946.4390273429,19501.3272832341,16716.0078607165,19567.4068912644,21433.0422287651,21535.7886592873,20165.2620658628,19345.1451095754,19884.9182235791,20107.8186104387,18980.1860751835,18641.460818603,20614.886919675,20617.4733320234,19980.1744374575,20482.8402434518,22614.6733462366,21379.1340862719,19191.4509308964,19252.5650629765,18717.8022951683,20078.1182134233,20269.4816478918,20319.9637233217,19946.2431415389,19999.0987476217,18615.8012766486,21755.6065195353,21896.3025063677,21810.2045786676,18940.4373632348,19321.126327616,19331.9495902526,20607.7456395386,21541.2360364568,21376.6181656098,19333.0816851054,19333.4868083525,19016.3911316405,20675.3615449472,21483.0765950126,21746.9758604095,18755.1953421592,19582.2730653761,19512.7756458119,18890.3749174877,19065.1258760006,19768.6944479143,19755.6064285182,19721.2163813214,19355.8352470716,20350.9112631199,21256.1635594799,21211.7414867514,18772.8887882642,20583.8557457611,19497.0982891947,20665.3830202675,19652.2354830452,19746.3856791658,20318.8471693534,19467.6977106104,21145.7562142323,20286.8722810097,20373.5303684264,20272.6015520273,17745.5916471142,18052.9973375912,18868.1402960756,21151.5647690849,19078.1563576328,19552.7343808504,19152.7252565394,20200.9240564016,19329.5576447813,18912.1501387581,20771.771129134,19351.9404900693,19039.3125025275,20642.616901321,18822.0209951616,20564.3320062471,20635.5589666392,20618.5210030379,19182.5332298286,19710.8900099859,20093.1812792431
,66,20394.0604880729,21002.5712110663,22860.20482249,19834.1651275335,19926.503478871,19770.0625823878,18661.6040597434,18742.4791268729,18252.2811845419,19003.0560331733,19564.6290491008,16757.5570089211,19462.9677802281,21338.0542864002,21482.3315419418,20146.1547358159,19349.8944986789,19842.7926998552,20107.9470959912,18994.7137605783,18610.1192154433,20619.4207040401,20623.7193026384,20007.3233491377,20370.1581475947,22514.2275078523,21347.5493286936,19246.8125710108,19312.2907759072,18785.9748984885,20075.4260651927,20256.1617719998,20302.799466509,19972.5378660785,20040.387251569,18670.6493742472,21668.5712102138,21811.0681117759,21706.2326061183,18983.8293268909,19376.3944118967,19376.9615320979,20582.0984740412,21475.4511382622,21295.6365277698,19380.1921068441,19382.3785177676,19059.619387941,20567.4612516933,21366.4741032567,21646.0006719218,18750.6078709611,19617.6813424568,19516.5196071176,18900.4070423796,19108.3651729612,19812.990216372,19777.590878728,19737.068779032,19359.042555757,20226.6687195994,21148.1107202492,21104.2666971011,18756.7017517166,20593.8175447661,19473.1707451802,20691.7101213349,19638.7404432686,19739.2356652317,20293.6437577369,19450.1436286202,21153.750094881,20177.4692161484,20254.7640382727,20138.2472297977,17750.6450765292,18054.587314441,18880.3378566746,21148.7054553164,19081.3325303215,19529.8843220671,19147.3236013765,20233.9318818841,19355.4888556057,18821.7200597887,20638.4924715715,19238.2099184943,19053.6034368543,20665.285930451,18809.8035921019,20485.0571021775,20607.1567312149,20544.1813823645,19208.6221771852,19750.0035927721,20167.7663872939
,66.5,20307.6163608437,20933.5427705632,22773.3735324854,19829.6219058602,19915.6103215673,19764.3297095021,18636.1852488739,18712.1634954023,18225.9106362975,19059.6730390038,19627.9308149676,16799.1061571257,19358.5286691918,21243.0663440352,21428.8744245963,20127.047405769,19354.6438877824,19800.6671761312,20108.0755815437,19009.241445973,18578.7776122836,20623.9544884052,20629.9652732534,20034.4722608178,20257.4760517376,22413.781669468,21315.9645711152,19302.1742111251,19372.0164888378,18854.1475018088,20072.7339169621,20242.8418961078,20285.6352096964,19998.8325906181,20081.6757555163,18725.4974718459,21581.5359008922,21725.8337171841,21602.260633569,19027.2212905471,19431.6624961774,19421.9734739432,20556.4513085438,21409.6662400675,21214.6548899297,19427.3025285828,19431.2702271827,19102.8476442415,20459.5609584395,21249.8716115008,21545.0254834341,18746.0203997631,19653.0896195374,19520.2635684234,18910.4391672714,19151.6044699218,19857.2859848296,19799.5753289378,19752.9211767425,19362.2498644425,20102.4261760788,21040.0578810185,20996.7919074508,18740.5147151689,20603.7793437711,19449.2432011657,20718.0372224024,19625.245403492,19732.0856512976,20268.4403461204,19432.5895466299,21161.7439755296,20068.066151287,20135.997708119,20003.8929075682,17755.6985059441,18056.1772912907,18892.5354172735,21145.8461415478,19084.5087030102,19507.0342632838,19141.9219462137,20266.9397073666,19381.4200664302,18731.2899808194,20505.213814009,19124.4793469192,19067.8943711811,20687.954959581,18797.5861890422,20405.7821981079,20578.7544957906,20469.8417616911,19234.7111245418,19789.1171755582,20242.3514953447
,67,20221.1722336145,20864.51433006,22686.5422424808,19825.0786841869,19904.7171642635,19758.5968366165,18610.7664380045,18681.8478639316,18199.5400880531,19116.2900448342,19691.2325808344,16840.6553053303,19254.0895581554,21148.0784016703,21375.4173072508,20107.940075722,19359.3932768859,19758.5416524073,20108.2040670962,19023.7691313678,18547.4360091239,20628.4882727703,20636.2112438684,20061.6211724979,20144.7939558806,22313.3358310836,21284.3798135368,19357.5358512395,19431.7422017684,18922.320105129,20070.0417687315,20229.5220202158,20268.4709528837,20025.1273151578,20122.9642594636,18780.3455694445,21494.5005915706,21640.5993225923,21498.2886610196,19070.6132542033,19486.9305804582,19466.9854157885,20530.8041430464,21343.8813418729,21133.6732520896,19474.4129503215,19480.1619365979,19146.0759005421,20351.6606651856,21133.269119745,21444.0502949464,18741.432928565,19688.4978966181,19524.0075297291,18920.4712921633,19194.8437668825,19901.5817532872,19821.5597791475,19768.7735744531,19365.4571731279,19978.1836325582,20932.0050417878,20889.3171178006,18724.3276786212,20613.7411427761,19425.3156571512,20744.3643234699,19611.7503637154,19724.9356373635,20243.2369345039,19415.0354646396,21169.7378561783,19958.6630864257,20017.2313779653,19869.5385853386,17760.7519353591,18057.7672681404,18904.7329778724,21142.9868277792,19087.6848756989,19484.1842045006,19136.5202910508,20299.947532849,19407.3512772546,18640.85990185,20371.9351564465,19010.7487753442,19082.1853055079,20710.623988711,18785.3687859826,20326.5072940383,20550.3522603664,20395.5021410177,19260.8000718983,19828.2307583444,20316.9366033954
,67.5,20134.728106385,20795.4858895569,22599.7109524764,19820.5354625137,19893.82400696,19752.8639637309,18585.3476271351,18651.5322324607,18173.1695398085,19172.9070506647,19754.5343467012,16882.2044535349,19149.650447119,21053.0904593055,21321.9601899055,20088.8327456754,19364.1426659896,19716.4161286836,20108.3325526486,19038.2968167627,18516.0944059639,20633.0220571355,20642.4572144836,20088.7700841783,20032.1118600236,22212.8899926991,21252.7950559587,19412.8974913538,19491.4679146992,18990.4927084494,20067.3496205008,20216.202144324,20251.3066960711,20051.4220396976,20164.2527634106,18835.193667043,21407.4652822488,21555.3649280004,21394.3166884702,19114.0052178594,19542.1986647386,19511.9973576338,20505.1569775492,21278.096443678,21052.6916142494,19521.5233720598,19529.0536460129,19189.3041568425,20243.7603719321,21016.6666279892,21343.0751064587,18736.8454573669,19723.9061736991,19527.7514910349,18930.5034170551,19238.0830638429,19945.8775217449,19843.5442293572,19784.6259721636,19368.6644818137,19853.9410890376,20823.9522025571,20781.8423281505,18708.1406420731,20623.7029417812,19401.3881131365,20770.6914245375,19598.255323939,19717.7856234296,20218.0335228873,19397.4813826494,21177.731736827,19849.2600215641,19898.4650478116,19735.1842631088,17765.8053647741,18059.3572449902,18916.9305384713,21140.127514011,19090.8610483874,19461.3341457173,19131.1186358879,20332.9553583313,19433.2824880791,18550.4298228807,20238.6564988841,18897.0182037691,19096.4762398347,20733.2930178411,18773.151382923,20247.2323899688,20521.9500249421,20321.1625203443,19286.8890192553,19867.3443411305,20391.5217114465
,68,20048.2839791558,20726.4574490538,22512.8796624718,19815.9922408404,19882.9308496562,19747.1310908452,18559.9288162657,18621.21660099,18146.7989915641,19229.5240564952,19817.836112568,16923.7536017394,19045.2113360826,20958.1025169406,21268.50307256,20069.7254156284,19368.8920550931,19674.2906049596,20108.4610382011,19052.8245021574,18484.7528028042,20637.5558415006,20648.7031850986,20115.9189958584,19919.4297641666,22112.4441543148,21221.2102983803,19468.2591314682,19551.1936276298,19058.6653117696,20064.6574722701,20202.882268432,20234.1424392585,20077.7167642372,20205.5412673579,18890.0417646417,21320.4299729272,21470.1305334086,21290.3447159209,19157.3971815155,19597.4667490193,19557.0092994791,20479.5098120518,21212.3115454833,20971.7099764093,19568.6337937985,19577.945355428,19232.5324131431,20135.8600786782,20900.0641362334,21242.099917971,18732.2579861688,19759.3144507798,19531.4954523407,18940.5355419469,19281.3223608035,19990.1732902025,19865.528679567,19800.4783698742,19371.8717904991,19729.698545517,20715.8993633264,20674.3675385003,18691.9536055254,20633.6647407862,19377.460569122,20797.018525605,19584.7602841624,19710.6356094956,20192.8301112708,19379.9273006591,21185.7256174756,19739.8569567028,19779.698717658,19600.8299408793,17770.858794189,18060.94722184,18929.1280990703,21137.2682002424,19094.037221076,19438.484086934,19125.7169807251,20365.9631838138,19459.2136989035,18459.9997439113,20105.3778413216,18783.2876321941,19110.7671741616,20755.9620469711,18760.9339798633,20167.9574858992,20493.5477895178,20246.8228996709,19312.9779666118,19906.4579239167,20466.1068194973
,68.5,19958.0013683033,20666.0298482964,22436.5161802147,19803.7714670542,19865.4055036072,19737.0933059498,18535.163530699,18594.1677596974,18119.4486927485,19271.338736484,19863.0743624766,16944.717870575,18941.6525406619,20871.1755941722,21239.3205688472,20052.0087626257,19373.6993945308,19633.0047694103,20097.3458983762,19056.9395340911,18441.4676945504,20630.2140582167,20640.788884787,20120.2445801273,19810.4948861998,22021.3748381389,21183.5698420159,19513.9440275495,19597.2016768504,19113.1321377295,20043.491290158,20178.797399782,20204.2415803787,20103.9605601677,20246.7674956041,18938.9110264329,21243.045897616,21391.1082152911,21190.6004250212,19195.898785252,19648.2524417592,19597.3198364869,20441.3254561884,21146.2726097287,20890.8704764165,19616.6909580816,19628.2970185651,19274.8853405101,20036.3497025313,20791.137619573,21150.4171215869,18722.6493254296,19793.1842899868,19530.1502258109,18943.1903580864,19322.9144515086,20033.6228388038,19889.8339950726,19819.00508053,19375.6616594074,19611.7082723579,20615.5280126084,20571.9631264933,18672.7258058143,20643.4582977289,19349.441759219,20821.7375403446,19570.583466717,19706.4148250554,20156.0467784614,19355.1300106537,21184.3189692775,19634.3064312995,19665.6407230632,19471.3220948274,17771.8263605724,18057.1771648291,18935.8722656803,21136.9783474913,19103.678469367,19419.8019463367,19113.7934555008,20391.7356258793,19475.0104936218,18372.7966808479,19976.045300724,18670.309409849,19121.2205950953,20777.0616926129,18745.0136596433,20083.8427583348,20462.8831301602,20169.4098218436,19332.8875223767,19939.2952535983,20528.7586093992
,69,19865.6664209332,20608.1092382562,22369.9079658041,19788.3794707902,19845.7912742092,19725.7343768097,18511.4633301808,18572.6042101894,18093.480667617,19307.3492245595,19899.4426734877,16948.6022275669,18836.4831319395,20791.3103175388,21232.1544387648,20040.5041765436,19378.2969237681,19593.3713352998,20082.0163333709,19055.1946205983,18391.6351506235,20616.379090939,20627.243189194,20107.3593807201,19704.5393941576,21937.7162135458,21136.4610340001,19552.6062917543,19637.372838395,19159.0889537566,20008.1701995607,20147.4795996677,20170.2799850077,20128.5240594065,20283.9328189141,18982.0736487802,21174.3832570627,21313.6024052831,21094.4569566559,19231.5160681396,19695.808132784,19635.8338915508,20394.4138663206,21080.8427529812,20813.8212910106,19661.2426748813,19676.191406947,19316.5184863056,19942.4029832168,20688.2564937337,21067.1782233194,18709.9623061978,19825.2876368643,19527.7785785456,18941.3697993451,19364.0074506043,20075.7249862521,19915.3623793374,19837.6977561491,19380.162594143,19503.4603709283,20520.009540394,20473.0728680016,18657.4040949736,20653.0186786468,19320.0060048385,20845.1110798795,19559.7343184093,19705.4501865982,20113.9530694143,19327.7107183244,21175.4533617999,19535.1639781311,19554.9433170043,19350.3634062728,17770.8776553447,18051.6766498117,18940.8186870634,21137.2819097914,19119.4650235471,19404.5505868401,19100.3155196745,20415.1129823411,19484.0602612968,18288.7171453895,19852.8810864697,18561.753403831,19132.6125542111,20799.0564390272,18725.4762939327,19996.6770226434,20430.2629372299,20092.272579515,19349.5533589106,19971.1954794803,20580.1182230002
,69.5,19768.9111349229,20549.334176276,22305.1868068449,19769.9961297728,19824.7652283918,19712.1887775691,18488.570976608,18555.0903532546,18068.8095035285,19334.8876145591,19926.254974046,16935.5885291004,18728.2720941131,20715.9327332529,21236.0942560399,20030.2518190487,19381.2649557555,19555.4506863513,20060.8934452561,19045.546226176,18341.6357391508,20594.0886758372,20606.9906265512,20068.8193024511,19598.6811576774,21855.8269951864,21075.2469768022,19584.6213386755,19668.6940919716,19193.4323327002,19956.4851452416,20105.4870244753,20129.6581125212,20146.2973462298,20311.5878288098,19015.2574264192,21105.915487744,21230.9575162036,20997.1622922162,19258.2858843746,19734.3392545876,19669.9767850239,20332.3342196771,21011.4076564724,20740.0741122345,19699.6647105615,19717.6761438821,19353.6301848492,19849.9158026,20587.4850473486,20989.0806009414,18692.6449420382,19846.8250718218,19521.9193455368,18932.6896308365,19397.2464731236,20111.5978135869,19934.7917230531,19853.8310834165,19379.4330583771,19397.7383127096,20424.2562117971,20375.5013855219,18642.0268837975,20657.2976884457,19287.5478002098,20862.0560683539,19548.2032737582,19702.3875640919,20065.1717922166,19294.6507468343,21158.0454014987,19436.4056571764,19441.5712318805,19232.1342800866,17765.3717748706,18042.707700587,18942.1623724413,21132.2647282444,19133.9748163861,19388.3268443128,19081.6557579739,20432.0258957196,19482.5987837734,18205.9065486893,19731.4057685718,18455.3395511786,19140.6034597917,20816.5071248331,18701.9894831287,19907.6833787244,20391.9958293142,20013.9909416949,19359.9537250659,19998.553272862,20611.6304971833
,70,19661.9305491217,20481.337437056,22232.1706420373,19740.7775764967,19792.3612214383,19693.6403610387,18461.3463139409,18532.9453213784,18042.6690535099,19350.1222804335,19941.7758740666,16905.0261663098,18613.8889687335,20635.5510849535,21238.2795262043,20013.0566873009,19374.8107014946,19513.8613175318,20028.1772551211,19021.3354043884,18287.9580837873,20557.4438953159,20571.0448752202,20004.0996609768,19488.484703622,21766.697791938,20991.0583447019,19602.0599587336,19685.8214025099,19209.49611421,19884.5726546063,20045.3877856792,20076.5001023207,20152.804792814,20322.573025376,19030.1202030322,21027.4483719377,21135.9502106628,20889.9439074431,19271.3572806705,19755.4916199257,19690.975305824,20250.3336394077,20932.7863048628,20658.6434011634,19719.7056471384,19748.047903913,19377.6550198045,19751.6351128631,20478.7983618437,20904.3915965572,18667.011809465,19852.5538434944,19507.1220599257,18911.5352238989,19415.8194533505,20131.4955059531,19941.3129405003,19857.9764534788,19368.1984027893,19288.7814124465,20318.3234614845,20269.4834565938,18620.9675971843,20647.6311724488,19247.7277991651,20866.5287975066,19530.677380366,19690.1946571135,20005.7598876294,19253.7976886632,21123.5697269551,19333.9432900899,19318.1967312785,19110.6192890777,17751.5264970133,18025.468351216,18935.9405015984,21113.9813274293,19140.9303920402,19365.3849347326,19054.6781001692,20433.9669405935,19466.4513607867,18118.6010009639,19603.503343976,18343.4459139644,19139.102159984,20821.7318110905,18666.8144562796,19813.6387607057,20338.6959049922,19927.6529403564,19358.0886005126,20011.3643601537,20619.0442503864
,70.5,19544.055378116,20397.9241223644,22138.0424401771,19695.209186513,19742.096283182,19659.2593503874,18419.4264831235,18501.7401785952,18006.7790880438,19349.2071829377,19935.4590977629,16855.833173562,18488.1891734978,20540.699900735,21202.8399343619,19979.5203037452,19349.8046615865,19458.9333297664,19974.2278672241,18975.511144394,18224.2074016377,20502.8023448884,20511.1631773261,19910.0146544443,19368.0273027566,21660.5258088408,20887.7909575346,19596.8471684402,19679.4496362586,19200.6835582099,19787.8643620586,19959.8247628271,20001.6586496469,20137.3711397513,20309.2756851543,19023.2859239264,20928.5355010688,21019.8329672501,20764.8736047341,19263.6090542696,19753.7001431352,19688.9245900324,20143.2601736158,20833.5762872131,20561.1326412627,19716.8810043489,19757.813465576,19378.7457779148,19635.4112623703,20352.8147426697,20801.532743452,18627.6128209515,19834.2219055002,19477.2780059731,18875.1508980187,19411.7114118637,20128.6282400715,19929.056669633,19842.0814128697,19338.7434354221,19167.2670951209,20194.041997648,20147.4338646546,18581.4928811542,20613.5468104383,19192.8031256362,20846.1649525042,19500.2952230134,19661.0319622756,19930.3168179674,19197.6531918408,21064.9326343182,19220.2579221859,19177.7986477938,18978.3808779594,17723.5052881732,17996.7003404526,18914.1027767115,21076.1100139466,19131.8053941112,19326.6097100681,19011.6398547347,20411.6784557859,19429.3699633482,18019.9626131923,19461.1585523869,18221.7326542498,19117.2092294348,20805.9633559191,18618.5844081421,19708.5469187117,20265.6346620057,19827.6875052063,19334.9753194302,20000.0910174683,20598.1340312648
,71,19413.4064210176,20289.5891927751,22014.7731757418,19627.4722869714,19668.0275431387,19600.8012876662,18359.2863839122,18452.9372865971,17958.172637332,19324.0761860467,19902.8407664994,16787.714454947,18350.6960752127,20423.3915116152,21124.9823000014,19921.0207934998,19303.4906976303,19383.6301051894,19895.4648067983,18904.4989542069,18145.0131564238,20422.5481702406,20425.3582306636,19788.8861119337,19235.0851212994,21531.9232071936,20757.8874882592,19560.9633814259,19644.8528710405,19164.31819618,19665.9150119742,19844.3179261206,19900.2608448656,20095.643559797,20266.4696354885,18991.684058965,20801.5227910043,20878.7410271811,20617.8009379776,19228.1916465614,19722.8378629646,19658.1663291982,20007.8016429425,20708.5635398038,20439.279026066,19684.1853653335,19739.1776833449,19350.7114915894,19498.0641714278,20203.7578419876,20675.4396334085,18571.2087258414,19785.1644821326,19425.7697187597,18822.4147138851,19379.5702668023,20097.3548475995,19890.6892021676,19801.3415529153,19287.8970653315,19028.5860092759,20045.7307943554,20004.2076204201,18522.7405003335,20551.1943431129,19119.5767074464,20797.6330182724,19448.5734711809,19606.5629499033,19834.2644296295,19119.1681228956,20975.2268383299,19087.2474310745,19014.8840675748,18827.4046873657,17678.6413003447,17952.381684735,18872.6160560325,21014.2643841536,19096.8926494345,19268.9495387509,18947.7465160873,20358.818996006,19370.0515772787,17903.0431173182,19295.6158407001,18082.0636064361,19068.4086077982,20762.2107654966,18553.3699788764,19589.0053504965,20164.4539444022,19706.9070712343,19282.9986657025,19959.1075098807,20543.220090664
,71.5,19268.0364119923,20158.3393010757,21858.0766527241,19531.8513046064,19565.0903271931,19512.6167506412,18277.8232709396,18378.6416353508,17888.742346662,19267.821530573,19840.3519370172,16701.7992213308,18202.0924342943,20280.1596293587,21002.1034649232,19831.724501427,19235.7509832902,19281.4162082361,19788.5134867144,18807.0977229548,18047.766979534,20314.8186338098,20310.7660334767,19642.3268956874,19086.1884423288,21377.3567556199,20600.5130637498,19492.9343622164,19576.4408267686,19099.7107688819,19521.6954603985,19699.8788926411,19769.3070438301,20026.8017683611,20194.2127046133,18935.1143850631,20645.1110649618,20712.5741695847,20448.1096673376,19164.6151048975,19661.1708865292,19595.2385639323,19847.2581348832,20555.3451450852,20290.7716551822,19621.3065377332,19690.7835438926,19292.3704854586,19336.0337585138,20030.5191739918,20521.1385336722,18494.9189546889,19707.1855776189,19349.3373631467,18749.6155457322,19318.8645560023,20037.4561050393,19825.2161953719,19732.8199517608,19212.1293152345,18865.1920900193,19872.5107786022,19837.9695069725,18438.0593427011,20458.3515191046,19025.0041196881,20718.7953729958,19371.4104932604,19524.8029507688,19713.1839777283,19012.0904674072,20854.8204843227,18930.6783825326,18829.4068189101,18654.7232319343,17613.2771851403,17888.3689682756,18807.9805862007,20924.5615595767,19034.2907612643,19187.2910962816,18858.7861806405,20274.369514562,19286.7911676148,17763.7905512349,19102.9810691565,17921.2088435556,18990.2280754218,20686.4500643725,18468.8509063555,19450.4159266026,20035.3099859508,19563.5496474541,19200.6582801517,19883.1456412054,20458.8263515515
,72,19108.543184421,20006.4971977405,21672.3761245733,19407.6016393305,19432.144651457,19394.7410192778,18170.9540382773,18276.63652073,17796.7298425728,19178.6842941994,19748.5213356238,16600.8151466582,18040.7561968163,20109.4878201126,20838.6367253839,19713.184055311,19155.3790937489,19153.9639048902,19653.970741271,18685.3948242412,17926.9202811232,20181.0599823261,20165.9409130206,19478.8414276908,18920.9920978421,21198.4739527146,20417.2491968546,19392.3353297395,19477.9570392535,19009.9316594375,19356.78447703,19530.1291386196,19610.154179528,19932.3137158895,20097.9529345702,18856.0356718671,20464.3039472341,20524.857749167,20255.6607006576,19076.3699327609,19573.0599322967,19503.5967787492,19665.0047408003,20379.6196975798,20115.8461577587,19529.3878294087,19616.3481647157,19205.5792998061,19152.4033328475,19834.7962716842,20338.4201418418,18397.4892921059,19603.0183562902,19246.7342301616,18655.5460210174,19232.8400124329,19950.6699781459,19737.100939401,19638.5804544817,19114.8256434336,18681.0318955252,19674.6967091628,19647.5840990996,18326.7247527316,20337.0799234824,18908.8072941798,20612.1468070696,19267.9247480109,19418.0924582907,19568.6060362196,18880.168011186,20706.4522075177,18753.3573473769,18624.7444412934,18460.6992722761,17527.5910461084,17803.867103982,18719.2314373888,20811.5171022017,18945.0017695595,19082.9424160608,18746.5878732294,20160.2126650081,19180.816644366,17602.3131997173,18886.9290163409,17738.3873423329,18884.2508844723,20579.1770671075,18362.54772964,19292.223442136,19880.5226396769,19396.9008677518,19089.5861664262,19774.6253998635,20349.7286957024
,72.5,18938.4785752727,19837.740184054,21463.2573050975,19260.8673800616,19277.4960458177,19248.3073073622,18042.6409715462,18151.9788084187,17682.4436144594,19063.4652562461,19626.7118469947,16487.6681797629,17868.6840996551,19918.8346258373,20641.7478617316,19569.2173477486,19067.6634492119,19001.0592416233,19494.8924631094,18543.2991995234,17784.2063978304,20022.3722130517,19997.5965992988,19301.4350798112,18741.0965010074,20999.0078422135,20215.217452425,19264.8099492176,19353.5039997699,18900.6752500772,19176.9215476301,19340.7197847414,19428.9929213545,19816.3790013907,19980.5329146343,18760.080350413,20262.9234406303,20316.777118461,20046.2817345589,18967.846506856,19462.057197777,19387.935858138,19464.5579861008,20181.2831404022,19920.1805037002,19416.7613961212,19516.6397672761,19094.3719400435,18949.7644338687,19622.8151255532,20134.1363331423,18280.1244315339,19477.4746304947,19122.2983978988,18544.1540632844,19124.0111444069,19842.2838023792,19628.8430208534,19525.0052808775,18997.3990121275,18478.2319581245,19458.5251152978,19436.7987987325,18193.2751074833,20194.8596899041,18773.0299589058,20481.6483756489,19139.7129956871,19288.019098999,19401.2935256391,18724.5267944989,20534.2938840319,18556.591303952,18405.9508332925,18248.9964166981,17421.9672782602,17700.2264846755,18606.802880413,20677.7323945482,18834.3664133842,18958.0579915545,18610.8165611454,20018.9894216929,19068.5631396235,17422.0920813124,18650.9260002979,17539.4773911437,18753.246481619,20446.9602649211,18238.2947539716,19114.7777310327,19705.1281289284,19211.3701979911,18955.7700274,19639.602678521,20218.9112550451
,73,18759.1710314559,19658.3894009628,21238.4917851331,19094.0470450204,19106.839369067,19081.1726047241,17900.2880427324,18008.1972798083,17550.2244622966,18926.0802297983,19484.2184404835,16366.0219565381,17690.1362872619,19713.6066851834,20428.9133537572,19405.4396993969,18975.4941755128,18831.834443594,19317.8098933954,18386.4941582613,17624.8654445345,19842.5478460134,19813.0841023543,19114.7770564315,18549.3163503239,20783.8877880808,19996.5310435198,19114.862507981,19207.2963732613,18788.6659503089,18987.658876239,19139.2650254258,19229.4787212182,19682.7900078453,19847.065770732,18649.6052685012,20046.3096546533,20095.9513229285,19824.753801522,18841.6092819333,19331.8979287474,19255.998913735,19251.7469395428,19968.1446051767,19709.5631011648,19286.7541759493,19397.4438667462,18967.9661809782,18736.1730407625,19399.9054125164,19912.4739412658,18146.9840688082,19335.4354354485,18979.3057426237,18417.0706521327,18996.8845397512,19714.5562014945,19503.6427079111,19396.7003496965,18868.3128103422,18262.2490282601,19228.5679532828,19211.2416343057,18046.9499963979,20037.8013831193,18622.6639898179,20332.9386648907,18989.7769969086,19138.3349286185,19216.4527280824,18548.5276278879,20345.4058078733,18344.8162059013,18176.3748526586,18023.8216797145,17299.8956568448,17578.2769683519,18475.136942448,20527.7348137479,18703.333973757,18817.9790123553,18455.794766055,19857.9626914289,18955.2463939986,17224.0388883853,18402.8524584775,17326.5760560215,18604.1472435311,20296.5172835795,18097.1378663737,18922.529026679,19511.713896278,19011.2042689743,18804.4977433761,19485.6788224383,20071.52141877
,73.5,18573.2436029348,19474.2431462782,21004.4298479412,18913.6763071445,18924.3139682712,18898.5341674266,17744.8687200411,17851.7451319102,17402.2613198277,18769.5127356302,19324.2834671048,16235.955566624,17505.2344675771,19499.3988059396,20203.9866133369,19227.9643984052,18878.1423350187,18649.2879952487,19125.6371998592,18217.393127069,17451.6053523734,19646.9299582061,19615.8586459598,18923.3525441504,18346.2750774504,20555.7991285291,19769.4254736298,18949.2815670739,19044.77693946,18674.480375584,18791.1732636413,18928.4020946584,19018.1691890392,19536.900014375,19703.0325780381,18529.5545999344,19820.9599891109,19866.1154808292,19595.3282773494,18703.1968348738,19187.840131764,19111.9710496565,19032.2900234674,19746.8616897046,19491.2617282094,19144.269438952,19264.3390713592,18831.7311208149,18514.1480592576,19169.8814613761,19680.3121365256,18000.2962111323,19182.1308661468,18825.5671801817,18276.2419484629,18856.6860001289,19572.4924436835,19366.2720426277,19255.0668908016,18728.6212796808,18036.8779129225,18988.5995562802,18974.4437975612,17889.7063139052,19869.0575137761,18460.6900513902,20170.5309071048,18825.3313303899,18975.1802174594,19019.3618109264,18358.9533011987,20145.632282863,18122.5647563325,17941.2938730043,17789.4639788897,17163.741985976,17441.4296710067,18328.6291467039,20364.4686294379,18558.9544275357,18664.5915949262,18287.4485383742,19682.5167061783,18840.2324183427,17015.870974128,18148.4634928635,17105.1028039099,18444.5617121979,20129.2175436911,17941.9460635402,18718.1908275124,19306.2462860045,18802.0771707138,18641.0152819685,19317.2654952442,19914.0302624513
,74,18382.7163617696,19287.0224078862,20765.9440076209,18723.3173552396,18734.4923367613,18708.2519961511,17578.9143835987,17688.9315761989,17245.3718623192,18598.2830833901,19149.806667331,16099.0087743732,17314.5592952127,19278.8926337942,19971.7811331605,19041.4652763598,18775.9764181554,18461.1404600726,18924.0314487378,18040.5426517918,17267.7379042042,19439.256654819,19407.4119793615,18728.0977693667,18136.5935323683,20321.1173215458,19538.9510040624,18771.1284023654,18870.818411834,18559.4978442177,18589.1966756035,18710.1060681537,18798.9447634197,19380.7813628615,19550.7156253462,18402.6434281761,19591.0662893681,19631.7631706916,19360.3556274012,18554.5389289263,19035.7215004108,18960.9626290036,18805.941656545,19521.921921188,19267.294629485,18995.5968046381,19122.8250410422,18687.2670892091,18289.7248681466,18935.9263286863,19441.9004944501,17843.8974547442,19019.0508837118,18662.4286516767,18125.7890819381,18706.4720455085,19418.6816587386,19220.4595799576,19105.9070331344,18583.3245454842,17807.5838979741,18742.7045105285,18731.2514092274,17725.4399773428,19691.8787638104,18290.4264654733,19996.4763717096,18650.2871139515,18801.6672009039,18813.5203999271,18163.9996536628,19938.8720811396,17894.2331521414,17701.8872646569,17549.5248173667,17017.1264251388,17292.7444301867,18170.8043788196,20194.1515424069,18404.6355942984,18504.0023559801,18108.0804905548,19494.7154438576,18725.6913713127,16801.2388315976,17892.1536314236,16876.8705709527,18276.312004949,19951.8281332544,17776.7367331432,18507.5544403167,19091.4968151761,18586.7183813518,18468.9250342295,19141.2337323169,19747.0908697712
,74.5,18190.5164903869,19099.2428883231,20524.9009197111,18528.9261498137,18541.8822368285,18513.0159414171,17409.384401688,17522.5297357021,17081.617558939,18419.0839304056,18965.1021502802,15957.0818962924,17121.718109055,19056.1362184932,19734.2703243086,18849.5782041651,18652.4451772917,18267.5847708563,18716.53419339,17860.4900919014,17077.103831832,19222.8826636732,19194.0867411581,18529.2098826301,17921.7083727466,20082.5786413224,19307.0773002634,18583.7721607856,18687.2715891551,18444.2378344503,18385.988477106,18487.5973446564,18575.2585617594,19218.0019097846,19387.2290344054,18270.909228946,19358.0634457431,19392.8277414533,19122.6631209949,18397.1036316254,18875.4533761282,18801.7119227959,18575.7243052021,19290.4312741057,19039.6345316564,18842.8666228247,18972.5751675682,18538.8372770414,18062.5214465592,18699.6197818975,19200.8785383562,17680.0521314086,18849.8932100287,18493.6976121481,17966.7032485174,18547.673303788,19256.7987045251,19066.9996306138,18949.3809714993,18431.5705190329,17576.0413011085,18494.8415733411,18485.7783242644,17556.9834660347,19508.6714555659,18114.5387938836,19813.9167983122,18468.6201766707,18619.201009922,18601.0041093738,17962.6655541185,19726.2604421525,17661.6042267344,17460.0866334314,17306.4856273653,16861.6411827326,17135.4046150456,18003.8721258,20016.1676204193,18243.349075634,18337.2579578909,17919.7904078646,19298.3950341496,18613.8120589985,16583.0384186736,17634.0729728238,16645.7317315728,18103.390440508,19767.2779952778,17603.8288466867,18289.571118044,18872.0894917811,18367.4663301029,18290.9094086589,18959.5979838966,19571.9463263951
,75,17996.2378816892,18922.3009615147,20282.5331502642,18328.8612678446,18343.6684982222,18314.1424863853,17235.8058878401,17353.3360894748,16913.915078336,18231.7089451066,18775.6259152304,15810.0534608704,16927.054177932,18830.2107436764,19493.305426503,18652.7228237935,18504.1105701141,18073.0311299725,18506.1274789742,17691.8504965975,16881.1416259319,19001.8632535907,18977.4438600163,18326.4368014428,17704.127008185,19841.1647233129,19072.7468960624,18388.1474585522,18494.6022318163,18327.1038212395,18192.0716928027,18262.495611833,18346.4553291082,19047.4454317391,19217.1035012327,18136.9571877614,19123.5614004194,19154.1262389827,18883.7516963262,18231.2942044965,18709.4449701428,18635.2790824453,18344.4612097105,19058.4324347432,18809.5154485961,18683.1629644383,18816.8234934467,18386.5277072142,17834.3520302387,18461.8100293758,18959.2345549092,17510.9914946759,18675.1059589954,18318.5899528658,17800.0157277896,18383.1846869615,19086.2278453356,18906.7828915541,18784.836046759,18274.8846472783,17343.8990991713,18246.0758146212,18240.8403245908,17383.679407671,19318.6721040412,17933.4421431208,19624.6925899221,18280.9637866326,18431.9618389749,18384.3188656283,17757.3163278278,19511.1650823583,17426.5377068103,17216.2417539615,17062.1256944791,16700.1229262037,16971.373703064,17829.9013743895,19832.7756849496,18074.0997231149,18165.2586457711,17725.667938312,19096.8772789058,18478.9791840054,16361.1471432535,17376.0475084615,16411.3165623376,17925.0241664673,19575.0904331254,17426.6628150868,18067.4379580478,18648.4584240907,18147.0671406786,18105.8736524487,18772.1117080781,19393.0421215211
,75.5,17800.6364319238,18754.286386288,20040.1803764366,18125.5679273827,18141.0012593047,18112.8337537068,17057.6565267357,17182.1907722744,16743.9217701975,18037.3877717465,18577.1930934494,15655.9686327593,16730.4822244651,18602.6676425564,19252.7083623116,18453.1667511014,18334.9073079073,17874.809622804,18293.281023207,17532.4466698821,16682.1046964398,18778.0651883908,18757.8774755048,18119.8113958447,17485.2754259091,19599.1086781721,18839.8395413518,18187.5303086226,18296.6293757975,18182.9507421107,18007.0971946392,18033.732407439,18117.8028465242,18871.2741625083,19041.6119963825,18012.2766202888,18890.2551665957,18915.0007079271,18644.8900511064,18060.8171025523,18537.4736041507,18463.4863342532,18113.2538082423,18824.898904964,18578.6967161219,18518.934023074,18655.1178570699,18229.4084559856,17605.8791925565,18222.8501367173,18718.6953274247,17336.6575592042,18496.1089809185,18139.3724214035,17627.1975439118,18213.1523757925,18910.9579766253,18739.7953011638,18614.8437376114,18110.803622652,17112.5339969041,17997.4400014412,17996.6471633292,17203.7981712001,19123.0846226695,17746.8874233774,19430.8376829315,18089.9059526714,18241.0387506749,18165.117893046,17551.6553433392,19293.6236238535,17191.0256455815,16972.5545851783,16816.9756617067,16534.0365987654,16803.0119590053,17651.773496524,19644.5576914484,17900.9766398784,17988.5601068465,17527.6004761898,18890.2185281747,18321.5038026484,16140.150172393,17117.6276831649,16175.3532245492,17743.2358066977,19375.4943831553,17245.531677804,17842.8612582779,18422.337988987,17924.0655344793,17915.0737182742,18578.7686104762,19212.6705356701
,76,17605.17479862,18592.4126298673,19798.4188930456,17921.1992116884,17937.861977311,17909.872967408,16877.4687321493,17006.059351669,16570.7898862108,17837.9177310488,18374.2202644939,15498.0304385595,16534.0616479428,18373.1016245924,19013.688047869,18251.0628113279,18149.5905627982,17675.5651536231,18079.3331242423,17383.4557874849,16480.3140617059,18552.3723139027,18536.5259847421,17910.8284321798,17269.0490462398,19358.7947390244,18608.2417900538,17982.3268730664,18094.2820014395,18018.0639920288,17831.8907031138,17804.7460048952,17887.5208258273,18689.0380048128,18859.8404368362,17893.7714898581,18658.9715132843,18677.8062135132,18405.5101804607,17885.4724862661,18362.0048507786,18284.7379634765,17881.4772492533,18589.6576998666,18346.9948168557,18350.8026518371,18487.4014388283,18066.7708954288,17378.4014661907,17984.7601653343,18477.5049559219,17158.218430399,18313.8578747267,17952.4529972662,17448.7057047491,18037.3530504363,18730.1359993845,18567.6858077548,18440.7360726415,17942.0755723372,16881.970847818,17751.1924729203,17754.0912191385,17018.1878715185,18923.3628795665,17556.9916693164,19232.6062829936,17894.2786942413,18046.4525233804,17942.2169925023,17343.5888398922,19074.2789513796,16957.3239829996,16728.2070086189,16573.4724476909,16363.2611452334,16629.6825532464,17469.188951722,19450.088029008,17723.1423122324,17808.0749436765,17324.8401965465,18681.0347582906,18144.519998873,15917.8706766187,16859.4233498146,15939.1493276514,17557.0405918749,19172.9981103075,17061.4973122569,17615.8039256778,18194.1697951542,17699.3007508078,17720.5596901897,18381.3742801878,19029.6664108198
,76.5,17408.6388844283,18435.7126770833,19557.2046611836,17715.7315178434,17731.5400247801,17703.1074521078,16696.4531976007,16825.2503563568,16394.0232527306,17636.6890108669,18166.9053966715,15338.3044601885,16339.1271460308,18143.7617996748,18776.8124995958,18044.6683176942,17950.3392913194,17473.6197570953,17863.6454774235,17243.6253646811,16275.8527884767,18327.0441457575,18315.9095471993,17703.0258718879,17054.0866610548,19118.5987061463,18375.327312679,17773.5069140134,17888.5379811955,17835.070617971,17664.9470846481,17575.7343535007,17657.678932461,18502.2028035672,18673.5265338124,17780.8194349567,18429.5939722418,18440.2751740267,18167.2366637627,17704.9258608044,18180.5947858793,18098.4416794744,17650.2249849037,18353.2180835266,18115.8581144023,18174.4784033038,18311.6985371512,17900.8135486856,17152.0022799573,17748.8654592517,18238.0411174348,16976.0050602905,18127.9597611602,17761.6374364571,17264.3003160237,17856.162431399,18544.2825469224,18389.359361842,18260.5995337892,17766.1498309556,16652.5598791205,17506.5277309267,17512.1745249792,16829.8625750058,18720.4686060877,17364.1441285902,19031.3601694672,17694.3334627664,17849.0722232533,17718.0360307554,17132.3435450671,18853.3914813754,16725.715670893,16485.4819068834,16331.8319692826,16188.0580340961,16452.4253572716,17282.589509593,19248.6390012293,17540.6051976197,17622.0096870627,17119.801275643,18470.4107117375,17950.3800436252,15696.1738704755,16601.8737285592,15705.3157735139,17366.871847456,18965.2826648842,16873.0396535128,17384.1056897702,17964.5116624606,17472.9187514316,17522.0157334954,18178.7907430555,18844.8051789084
,77,17211.0796320544,18279.9446404317,19316.643217486,17506.817877782,17521.5323706647,17493.1405209118,16513.73516932,16639.846882535,16214.767554515,17434.6658370587,17956.5642353814,15176.2507709418,16145.44957736,17914.5931602347,18542.7532322755,17834.3466762879,17744.9323648604,17268.354414444,17645.0926355196,17107.3956852501,16071.7169931028,18102.6211033751,18095.5622671042,17494.2297371042,16841.488172487,18879.2279886476,18142.9479307303,17561.1562605663,17679.5778822674,17635.4016637538,17504.4129659327,17346.4600684156,17428.7265044172,18310.3726395722,18484.7967027902,17672.2348121142,18202.1409984378,18205.5470936404,17931.465916852,17519.8773082133,17994.4083998948,17908.0594095037,17419.3624434206,18119.8953334533,17884.2943740926,17990.6931295031,18131.5023310244,17726.8584074233,16927.2329254331,17514.1349269365,17999.1134024011,16791.1690380599,17938.241328214,17566.8833780874,17076.8619662222,17670.5684350938,18352.3878367612,18203.8431967663,18076.0695643536,17584.1169825926,16423.9726292474,17263.7077842764,17272.199062255,16639.1238289752,18513.0097332644,17167.5919457904,18824.8750189355,17490.1274721966,17648.5437681758,17492.6520548524,16920.7448866585,18631.0471165668,16495.283906723,16244.1507440149,16092.6994369102,16009.5861929366,16271.3230907014,17092.9562935456,19040.7369372419,17353.3361831386,17430.8965484976,16912.9468318664,18257.1567906078,17739.4157964508,15475.4649757612,16346.0288843791,15472.2914860845,17169.705445361,18752.6032110607,16682.2080302641,17153.0820379646,17731.9228338075,17246.3514353059,17319.543417278,17971.8671747188,18661.3513755377
,77.5,17014.0380254574,18106.7814082256,19077.643992993,17297.8317422007,17311.3041379824,17282.5428752994,16328.648754563,16448.9743452823,16033.0469543826,17230.8794291727,17742.3220436839,15013.4808233359,15954.4306563649,17686.4055084334,18311.7103884633,17622.2786846276,17539.6742616092,17059.2971553445,17424.5172149823,16950.1249384921,15868.3978832462,17877.5269085284,17874.9860336707,17287.0833844544,16630.5208167672,18642.2596943415,17912.8891375275,17346.6924242886,17468.9702814891,17421.8970660546,17327.1409404113,17117.9150740818,17201.6915265094,18115.3385166133,18292.7160198564,17566.0210999215,17977.041421734,17972.1917470774,17697.3890561659,17332.9553816051,17804.7070895643,17715.0460921608,17187.8879440212,17888.7027516551,17655.0080760886,17804.0359366205,17945.7701151992,17547.7343809344,16704.9398684607,17280.2416182974,17760.0175225379,16603.8165100345,17744.8857958164,17369.6529402205,16886.4818112279,17479.2073599728,18156.4048110056,18013.0865177312,17888.0747398391,17399.5891138531,16197.2560155046,17022.5046946449,17033.0172666949,16446.6623289265,18301.6606352569,16968.4746098454,18615.3527970703,17285.4180264115,17445.0414554967,17267.0383909823,16708.3968034145,18406.7560800802,16267.3275473756,16006.0989730416,15855.5209208604,15827.8053169718,16086.7831111044,16901.286786962,18827.9069028636,17161.6343911963,17234.8340991351,16706.1811879599,18044.2344839821,17526.8979706277,15257.4612601766,16092.6348296868,15240.8460099271,16970.8505154558,18537.9457858919,16488.2086825842,16922.4071238281,17498.6626462893,17017.4006784127,17114.4113598784,17762.9365106855,18477.1792522426
,78,16816.0668690263,17917.5830667976,18840.6098435777,17089.4837490893,17101.5093949101,17071.0120368447,16140.7442191653,16253.4558875772,15846.8083847535,17025.8679975229,17530.8239650332,14852.2501862591,15766.1464109559,17459.1275783625,18082.6239465778,17406.3949614448,17332.7757929426,16848.2957577577,17201.2378398566,16774.4552081263,15663.8252108327,17651.4074275019,17656.995518586,17081.4336756512,16421.7526953761,18407.3455135557,17685.0338985967,17129.6350173878,17255.8437930807,17208.3457473134,17133.5203909001,16891.730233519,16974.5818957489,17918.0090343566,18097.2292170846,17438.9356813063,17753.3984533693,17741.6472665191,17466.1485392122,17141.3697480563,17613.6181062674,17518.4227068649,16954.6817544701,17660.0203296294,17427.2055782905,17612.0268524398,17756.8856714682,17361.749606589,16484.41475186,17049.0840101819,17522.1003503571,16414.2832712675,17548.0764893902,17169.6688490683,16692.904341342,17284.6180810123,17956.786318267,17818.1413175192,17694.8131526957,17211.3787934763,15971.7630957082,16783.5299911224,16796.2004165316,16253.6683358288,18087.230099133,16767.6781501559,18402.9442383776,17080.0465439773,17239.3271230716,17041.102873647,16495.2430745004,18181.5173278144,16043.1508956772,15770.4999413031,15620.3625338829,15642.652513399,15899.0704352099,16706.4684148656,18610.3488412719,16966.6939878195,17034.2958796174,16500.5846984258,17831.5885269554,17313.2761258589,15041.227609858,15842.0212142174,15012.1480235842,16768.3339988379,18321.2556010634,16292.00475736,16691.1567751482,17264.6238927197,16789.0755326613,16909.0286673292,17552.1109849831,18292.1415505666
,78.5,16616.2089652322,17716.3059110109,18604.443501359,16877.8941198373,16887.986198835,16858.7371507676,15949.4448389178,16055.4706107364,15659.4792989058,16820.6343213971,17319.5958593381,14691.3699512051,15580.3816444162,17234.4207576372,17855.5642492347,17188.1627633733,17123.4437054775,16635.147373763,16976.6280112486,16581.7642398554,15460.2595366376,17428.2327830903,17439.9182920982,16875.7296702174,16213.1688697757,18174.2527879089,17458.5076984898,16911.020799459,17040.8375794963,16993.5183914759,16924.3981885485,16666.6736275144,16748.7968493423,17718.0110547605,17899.6844624957,17293.8512519684,17529.3571890269,17512.34833604,17238.3977926944,16946.2807325739,17420.0079066911,17320.4298396606,16719.0621397006,17433.9997523731,17199.6028373158,17415.4390262495,17563.8428743234,17170.4128497311,16266.2634404933,16820.170527147,17287.4395600519,16223.2028503405,17347.3568952109,16969.467459152,16497.7183837938,17087.3806986867,17754.81872117,17617.754468306,17497.3186539712,17017.7930536679,15749.2419325822,16545.7607437399,16561.7459797483,16060.5147143908,17868.4245779319,16563.9202565504,18187.7332804745,16874.8552974009,17032.7467907465,16816.6919657983,16283.2566109245,17955.3478995926,15820.4661383236,15537.8992375457,15386.7760741347,15456.2643424585,15709.9352467324,16508.6981741469,18390.6777982585,16767.9110562002,16828.7689651273,16295.6840577756,17618.0536712884,17100.3352066001,14828.3352007798,15594.2260971844,14786.1537822613,16563.9431405084,18100.4410383108,16093.5172391335,16461.4666617112,17030.4972038336,16561.450058028,16701.7942212346,17339.1569414014,18108.2508792122
,79,16417.9563230634,17504.2173822116,18369.900513629,16665.0425530586,16674.9510838741,16645.6391821611,15755.0997150256,15853.9820562248,15470.9705789646,16615.6046445757,17110.706381709,14530.3160011034,15397.5602244991,17011.5272406675,17630.7307413135,16970.4274697474,16911.8366304735,16420.7891133406,16750.3563507238,16372.6832566839,15257.9932666995,17205.2248826657,17223.3954728467,16668.4162516504,16006.6148076921,17943.6512743996,17236.2954306401,16691.6180242742,16824.4866994841,16776.134983501,16702.0394583086,16442.8672347939,16522.1222817597,17516.0354700083,17699.4098238361,17131.8041374373,17305.5146438499,17285.8429097588,17013.1070384682,16749.9061918687,17224.0390511648,17122.1606432452,16481.1472377488,17210.1878179859,16971.8276356892,17217.4693218076,17368.6075877492,16972.8175839657,16049.4410469037,16591.0040671208,17054.7592138012,16029.6784500178,17142.9329187186,16767.5822452592,16300.7869919093,16885.7457021094,17549.0575277728,17412.951190375,17297.69265209,16821.1337569758,15529.0893440138,16309.9126305422,16330.3496161142,15864.5347840334,17646.8119937794,16357.2104699382,17970.7432580751,16669.600530746,16824.4367241388,16592.0189818752,16071.8909046896,17727.4343171144,15598.9895608097,15308.0476149861,15154.9580351727,15268.8123432453,15519.1871536813,16309.1670254863,18168.4493715769,16566.0939992316,16620.2937266773,16090.8165485969,17404.3124073633,16887.3188880304,14618.0214196919,15349.0383772335,14561.4599426701,16356.7285871742,17876.1266754246,15895.0526841902,16234.8570885289,16795.8931108291,16334.684013182,16493.8316330755,17124.7379523877,17939.5024348841
,79.5,16220.0039183039,17284.2829551342,18137.5682984412,16450.3293641677,16461.8163476942,16432.3825889134,15556.443744987,15649.5842238282,15279.429530328,16407.0611718404,16901.9396378989,14368.5702457763,15217.5084787473,16789.7990765992,17407.9125336406,16750.9780706891,16699.8874267198,16207.0717371826,16523.157332606,16150.9985383453,15054.6240527099,16981.3123822945,17006.708788691,16462.2622324484,15801.6108248242,17714.9134793255,17016.659023352,16472.1291274958,16606.9035502701,16557.8375861875,16466.0160148035,16218.4744272689,16294.3281343284,17311.3171847973,17498.6318077881,16954.9010741852,17082.4612094787,17060.3429354574,16789.6392096234,16552.3548899657,17025.4054862628,16921.7127320164,16240.7055730781,16986.6596819338,16746.5211005507,17017.6681769899,17168.3257454088,16772.6369651056,15834.7575270991,16363.9380652111,16824.7885999008,15833.465517601,16934.6827341707,16563.8366877501,16101.3799329853,16679.0333261256,17340.0349377097,17205.3098650511,17094.0543963704,16623.043422138,15311.5373573441,16074.9968079306,16100.7077047563,15665.4017308069,17423.3355162674,16148.319622522,17752.6482625764,16464.5751592728,16615.1788409552,16368.5414281373,15860.3665515,17498.6093093085,15379.7732359992,15080.9537498587,14924.8215978449,15079.7762470703,15326.9334527865,16107.2994591617,17944.4064285969,16361.8029419396,16408.6918314493,15887.1430799142,17192.3765145908,16675.4752830961,14408.5152355175,15106.5479304752,14339.2549965387,16148.8183702204,17649.4462337972,15695.0017273726,16009.1101493202,16560.6659884064,16107.9249721067,16284.8306069011,16909.7532610971,17782.9061111792
,80,16022.6185744412,17065.7151331908,17905.94918559,16233.2109373988,16248.1245475316,16217.585418603,15355.1336261752,15444.4132772296,15083.8615104916,16197.3930803523,16693.1337650123,14205.0542575952,15039.5153628826,16569.8459914481,17187.237994726,16528.1014685193,16485.1468415166,15993.3685808694,16294.0078884056,15927.8448490774,14849.7865994035,16759.0446581999,16790.2602032778,16256.1043416485,15597.9656730671,17487.612702587,16799.0543415952,16251.5466073916,16388.7277489071,16338.9488674632,16229.0730180663,15993.9191203946,16066.9428222169,17104.2706380765,17295.6887255872,16763.3095604986,16861.5245000349,16836.0206778157,16568.4646706168,16351.4015313621,16822.9561356543,16717.8051480521,15998.4854815793,16761.9086370032,16520.8983263302,16813.8810499552,16963.7793206067,16568.8331890282,15621.6740121356,16139.2923736866,16596.6472176512,15634.5182843303,16723.0215860777,16357.5995589245,15898.1908624286,16469.5912204758,17127.6902421092,16992.8227975966,16886.1664694482,16418.8618076115,15095.7180631039,15841.1357819353,15872.76466394,15463.3630303199,17197.0252348733,15936.9447697859,17530.6687655463,16256.7384469738,16404.4453252663,16145.7047721645,15649.9272663835,17270.1189818132,15162.3110974937,14853.7709995177,14696.6639709092,14888.9008780237,15132.9343389949,15902.9118788812,17716.1518688404,16155.3348248174,16194.0721025524,15682.9572869838,16978.9011905854,16463.510647886,14200.1824885342,14865.4685996154,14119.5162374317,15937.6535496403,17418.259908692,15491.3110355561,15783.5873345754,16324.1699152686,15882.4879856501,16075.1334430043,16693.5263744582,17637.3603372292
,80.5,15826.6948812149,16847.753446234,17674.8383864318,16013.0943917559,16032.5780882109,16000.4132161495,15150.4484741855,15235.9976270442,14886.1782169617,15985.4349335496,16479.8116054721,14041.6516369703,14864.7330944401,16351.3959406575,16968.6261252983,16304.0936321925,16267.2479576933,15778.7721484708,16064.0492342562,15701.8493735663,14642.9501791337,16538.4550995755,16570.275132388,16050.5268252688,15395.1170477835,17261.525875056,16583.1260606579,16031.5125802276,16170.6298701048,16120.6294200814,15992.7488168316,15766.5764569642,15838.8324668353,16893.4966864044,17090.3624347618,16569.1418794508,16642.4417612971,16612.4443747041,16348.4569553834,16148.7127031493,16616.4291763022,16510.2604924615,15754.239414269,16537.2594773202,16294.2329368921,16607.1184979331,16756.2282779415,16364.3855521246,15410.0275146111,15916.0588365175,16371.0972796366,15432.9539270062,16507.7149782895,16147.8648988756,15691.843715008,16254.5054779676,16909.277570258,16775.7745105032,16675.1737994952,16211.272347395,14882.0643098931,15609.0741224125,15645.4028953437,15257.0927771422,16966.4296035997,15723.2191343901,17305.938304796,16045.7678558491,16191.9892016099,15923.0867403135,15439.3480810594,17040.0690685044,14943.2991890587,14628.0356459506,14470.4026734349,14695.292213532,14936.3296732563,15696.0513094089,17483.1751838968,15943.5257150293,15975.3966723309,15476.1751130752,16764.6690213954,16251.7588741227,13993.3677488815,14625.6870707706,13900.6662028905,15724.5125412718,17182.3661780834,15284.7389352151,15557.9379262122,16086.2993915821,15656.2515485943,15862.5267867709,16476.4377624818,17501.2504404873
,81,15632.9970748348,16629.3908487635,17446.6798801394,15792.1450178574,15818.1210974768,15782.7799383982,14942.2347396787,15022.7800532316,14683.1054971079,15771.4513885535,16262.7384782474,13878.2606841813,14694.2154131443,16133.5777439759,16751.5708168376,16077.5425469804,16047.3627610561,15563.0581290176,15831.4631376809,15473.3319040802,14432.4571105604,16313.9390616854,16348.5264530697,15845.9547093313,15193.2109004858,17036.2353060931,16369.1033275338,15810.7192354276,15952.4152995479,15902.204054944,15756.9630643775,15537.4234767972,15608.7502772504,16678.9951771297,16882.0669422189,16371.9038666978,16425.9911326771,16389.9108584206,16130.1056327232,15943.5418190364,16404.9044159855,16298.8353333005,15506.3687536153,16311.0876674396,16066.3601951147,16398.0330624443,16546.5391667531,16157.1987424362,15199.3280697225,15694.7330320207,16145.775414049,15228.5893567228,16287.9214649951,15934.8754665337,15480.3946422314,16033.8372026723,16683.7162381698,16554.5497047567,16460.0053665991,16000.6491329589,14668.4174147302,15378.1377742251,15420.0825062562,15045.9051814103,16732.7968279777,15506.2025640661,17078.5830580357,15831.6470408301,15977.3274689683,15700.1198998816,15227.8911313632,16809.1998387487,14725.1149751359,14404.35292681,14246.4882879354,14498.4376398201,14736.4850477622,15485.8344468868,17245.0458214869,15728.8193593688,15753.6165229877,15270.3861043945,16550.3031350814,16039.1249825861,13787.0223610079,14387.5625449516,13683.0978466864,15506.3410496449,16943.6932318526,15075.0277430781,15328.4786189542,15846.3908668757,15427.367872043,15648.2107428592,16259.5433471595,17371.9460576602
,81.5,15440.4127742572,16412.4731653427,17220.8039932859,15571.7422720934,15605.3706187865,15566.7715171647,14730.5778116728,14806.7271392799,14474.4224120329,15552.9327848906,16040.005841433,13713.0726839279,14535.5775143389,15916.3906473426,16535.9922979356,15847.8758562362,15825.0268113799,15346.7635350313,15593.5582079182,15239.5363884664,14217.3863928901,16085.6227113791,16123.4157281532,15639.082844587,14992.3769204494,16812.2920129363,16155.8622318424,15589.3706278894,15734.2076820271,15684.9896617222,15519.7874537199,15305.7472540637,15376.602730558,16458.6970617261,16669.2126115096,16171.2876832892,16211.5095744042,16169.3331160231,15913.3674066514,15734.1401549654,16188.7750144539,16082.4746640686,15252.0693252491,16081.9185672722,15837.2865550485,16184.709010153,16333.2493134307,15948.0819459873,14990.8909565828,15476.5871318765,15920.9197744992,15022.2323235584,16064.9094661327,15718.7570744327,15264.3855496419,15809.3988051635,16453.533478431,16329.5079817773,16238.8471822221,15786.8114785406,14457.1095526423,15148.6176288777,15196.4196404476,14830.718699173,16492.7882470975,15286.2491607754,16847.3059308304,15616.1712817727,15760.5343394674,15477.2841071608,15016.0768133817,16577.7134612239,14508.1166962037,14181.3530973133,14024.0496952003,14297.1317806314,14532.7328351434,15271.4992167632,17001.4652440629,15508.3287579784,15526.4591731593,15065.0529430924,16335.5444614373,15826.064675901,13581.2493346558,14150.9770068358,13466.9643029106,15285.4789439588,16701.7259388275,14861.1338529104,15094.7592945942,15601.8987211958,15193.5328010368,15432.3058589183,16042.7009738986,17220.9623235709
,82,15250.3455573999,16196.5719861153,16996.4444517822,15354.5913307536,15393.3780223915,15352.0202716327,14514.921814581,14588.0636133081,14261.448214831,15333.5492656078,15812.2446677395,13546.9014095614,14387.2267860628,15701.1573405866,16322.7002463883,15616.5507666473,15602.3888877397,15129.1819768509,15346.7642500321,14996.3296042554,13994.8460929666,15849.6554743122,15892.3411223481,15428.1680391071,14793.0801009966,16590.6081853609,15944.4163021314,15368.4345590909,15516.5734757959,15468.5895800743,15278.695486874,15071.4064987415,15140.083204622,16233.0781627338,16449.8356522196,15965.6256031905,15998.7021264312,15951.1441867209,15697.9541470996,15519.0770875806,15968.2837714949,15861.4337144545,14981.9773827675,15846.2868662276,15599.9345979267,15967.977956253,16119.0586537789,15736.7756404366,14784.1961684571,15260.4797435321,15697.8169986503,14814.111458704,15839.1944790334,15500.3837901673,15042.9850996235,15581.2281192266,16218.3142494961,16099.6218886966,16013.8978097166,15567.3627320794,14247.1672957271,14921.4251539842,14974.5061815181,14612.5756431593,16247.5168645752,15063.1408217099,16614.1025852877,15399.5310184742,15541.9186441938,15252.6328457891,14802.4625734711,16343.5627108572,14292.1409698558,13960.0703667697,13803.246133776,14091.6166272191,14324.5048261902,15053.4490302754,16751.0106584841,15281.7674413412,15294.347567761,14859.3036425075,16118.1661371555,15612.1025511419,13377.7550580318,13915.6233711532,13252.0340987903,15062.3803777683,16457.5486133511,14644.4240314753,14850.384738827,15347.0059831834,14950.0741135866,15215.3989649122,15824.6546110084,17048.5393584946
,82.5,15062.8748522405,15983.3688155557,16775.6383228643,15139.9098150693,15183.4884099058,15138.4721894253,14295.5149190188,14365.4042106494,14045.8960190256,15111.5066936579,15578.5460900713,13379.8227783597,14248.7876822015,15487.3478864672,16110.3803823737,15384.5101358578,15378.6857330071,14909.6565917777,15084.9083314423,14738.78700042,13761.5417841327,15599.2464154392,15648.2067276466,15208.4628550689,14596.1655727817,16370.8982957977,15736.0591277899,15147.9954827948,15298.8476936549,15251.3428436848,15027.5815593614,14828.1218493627,14891.1029633583,16002.3195771038,16225.9136731408,15754.3323216779,15785.7180703659,15735.2705339128,15484.0582199675,15298.4486078023,15742.4727218009,15635.29265744,14674.536719104,15598.8815100442,15350.1658981088,15747.8689730926,15903.3254288297,15521.4366198393,14579.4248973941,15046.0689330952,15477.4093040414,14604.6057737648,15610.2644507316,15279.8983955951,14818.203365971,15347.5073388184,15976.2349372275,15865.1042252772,15786.120384679,15343.5440166897,14038.7413572596,14696.7352693649,14755.1003344146,14391.0276437887,15998.1819609261,14836.9745308254,16380.3416876717,15182.5570910492,15321.8931376748,15025.2700831522,14585.2703783321,16105.6640704163,14076.6819751488,13741.5936418121,13584.1321442528,13882.8806975452,14112.4124705436,14831.4613133185,16496.1845251905,15049.6205198823,15057.5156761337,14653.1512739078,15899.9985746104,15398.1461394656,13175.2100090717,13682.4231852501,13038.2916448158,14836.8676039018,16210.0710307171,14427.4826937492,14588.3521889161,15072.2558738869,14690.633708819,14996.7090990237,15604.839795997,16855.7625010433
,83,14879.3822714776,15773.8054173585,16556.6465358925,14927.6084195841,14976.164134938,14927.3358225473,14074.1966009969,14140.5957046701,13828.1762831463,14886.2365548219,15341.8927484241,13208.8815741215,14117.7058396455,15275.7983539992,15899.7030959457,15150.8105541613,15156.2110815618,14688.3181631083,14805.9499566169,14465.6726374466,13517.7943780199,15331.7335818632,15392.5366401994,14980.4386386278,14401.275615949,16153.4576183398,15530.1914492553,14925.6294484877,15080.5139697094,15032.9423349977,14759.7828558456,14572.9135077788,14626.3937280763,15767.7977596782,15998.0410265245,15539.3432750338,15572.4735135669,15520.8822285508,15272.423565303,15072.1553596557,15510.1273351983,15404.990371472,14306.9462977808,15334.23978649,15084.3468623241,15526.3187171795,15684.5099527002,15301.2698681392,14376.6489280629,14832.9770018526,15257.6837391494,14393.7242809571,15379.0725661999,15058.6502780295,14588.5997841246,15109.9887541938,15730.3074356139,15626.5175317022,15554.9349771616,15115.6981937873,13831.2821481152,14472.7248963871,14538.0775396288,14167.9894111783,15747.0185760881,14608.7900687585,16144.7046925972,14965.8644031344,15100.6268143956,14795.8213700729,14365.5279925666,15865.1521466594,13862.8297088392,13524.7106490551,13367.0504727782,13670.7393840244,13895.6659222973,14605.576576933,16237.2347873743,14814.6994813236,14818.0620384514,14447.4858267423,15680.785920645,15183.7293756257,12972.6679149954,13451.1290981954,12826.1024916588,14608.0792689922,15960.5648715108,14210.0214537544,14308.9804172253,14776.0109210698,14416.1278857665,14776.4750216138,15383.0124513955,16642.2098415892
,83.5,14699.6915609252,15568.5241785026,16339.0021354317,14718.4930433619,14770.4216050415,14716.8562949601,13851.0355036365,13915.6013203478,13608.4475532576,14657.7198081129,15100.9383102236,13036.0574346965,13991.7106855246,15066.4132427101,15691.7529856703,14917.4242112621,14933.8060002786,14466.0505805261,14509.9600844825,14177.0849276071,13265.286093013,15048.4207570423,15124.1417089734,14742.1062569589,14208.8451951966,15939.8231877822,15327.2533306612,14701.8791030883,14861.488938887,14813.0312490881,14470.7284275013,14301.430419937,14344.2255576235,15529.4177900697,15766.2623851817,15320.5312754735,15359.8203457814,15308.1845509894,15062.3316690731,14839.7039433617,15272.1838120556,15170.2428450475,13858.6280078029,15050.5069935598,14801.663661266,15301.2469648106,15462.9308115828,15078.3524180014,14175.1686559117,14620.1328774961,15039.7239695201,14181.4164621639,15146.678032662,14835.7067501296,14355.2462570514,14867.8169897406,15479.7116648621,15384.5343369853,15320.7881831637,14883.6006414062,13625.2609172178,14249.9153393664,14321.4838375046,13943.6947815957,15492.6519881643,14379.3296744858,15908.0285690741,14748.9017408632,14876.3284737595,14563.0912204746,14144.4146263044,15620.6140507092,13649.2899090646,13308.106127833,13150.1020843665,13454.3422331565,13674.8583416319,14376.9239827965,15975.0608241975,14574.59911783,14574.7288864695,14238.9443072424,15459.7467657367,14967.8998609573,12770.1910402489,13219.5974304653,12614.1329924776,14379.2237600177,15708.3616403601,13991.8877852537,14013.5983789855,14458.5579965997,14128.1084779132,14553.5712067703,15157.0537084303,16408.7963563629
,84,14524.1308715255,15364.0370101783,16123.0699373337,14510.5575350595,14563.7445827663,14505.3373515308,13624.0098268662,13687.3845087618,13386.3462916935,14428.0381126772,14859.6877164827,12862.704375509,13852.7432282282,14859.2055276266,15485.0782506825,14682.0854843095,14711.5906841634,14242.6349196477,14200.376187576,13875.2647008078,13004.5231845208,14750.0619428807,14842.9958908452,14498.8716947324,14017.0039595116,15727.9347013687,15125.9930434606,14476.2108926546,14640.7683196098,14590.0865518721,14160.9095123002,14014.9054672888,14044.7265066931,15290.1551439146,15533.4763256836,15096.8189041866,15146.2851005689,15095.1343193365,14853.7207163653,14601.7350177845,15029.4440158507,14931.5143957018,13317.315939927,14748.0035614316,14501.7665425307,15075.3830547295,15239.7969793009,14853.00949611,13973.3664349581,14407.632626941,14823.1807519581,13967.1445965491,14912.5998697306,14610.922416757,14117.0819819586,14619.9113766826,15222.6238090665,15137.9003974879,15084.2018058838,14646.6238342236,13416.783649017,14026.9176709356,14104.1147029139,13717.2638197081,15236.4818921279,14146.8355006419,15670.0168147761,14530.0052127015,14649.3288202214,14328.6574553239,13921.5316729682,15372.9628364429,13434.8415787622,13091.2191414367,12932.8776185326,13235.2595429416,13450.7648160112,14145.7957211554,15709.5567552148,14332.6095391945,14329.1391237513,14027.7279719659,15235.5366769673,14750.5620902597,12566.4305753598,12986.039291202,12400.9728104153,14148.0743704336,15453.1271737902,13773.0317641153,13703.8875569762,14124.6052708751,13830.5178486236,14327.2450362536,14926.8790883378,16170.2436865675
,84.5,14353.3091970041,15160.1212535589,15907.6837443591,14300.7992451214,14357.6421361242,14292.812192227,13390.5947696178,13452.1655994618,13158.0484668991,14194.7975524936,14617.3380582675,12691.528506796,13702.518858454,14651.8866736217,15277.492349115,14446.5320481896,14486.2610615117,14017.4296018018,13883.85963744,13566.9701631166,12740.5827236711,14443.6722062812,14552.6579507963,14254.409846203,13825.6783098033,15515.6917287866,14924.2961761741,14244.9329935945,14416.325728767,14361.701135703,13835.9686988923,13714.2714050562,13731.6768277318,15050.3322845032,15299.1305440033,14868.9717904485,14931.4622622887,14880.3888512171,14645.1501599072,14360.8848869549,14780.342457128,14688.6940869911,12693.5378468267,14434.2541772828,14195.6066817433,14847.0328366273,15011.719836064,14622.297950232,13769.6185881428,14194.0036665634,14604.5001894066,13750.8659662455,14675.5305168771,14383.7665771794,13875.2446945247,14366.9017277062,14958.4818210945,14885.6890466861,14841.1903628715,14404.3674828404,13206.1139234522,13801.3656287732,13884.2995418011,13485.8181140301,14974.7978821075,13909.8998553224,15429.2154798285,14308.1378230733,14418.8176264569,14094.1549953684,13698.8085569762,15125.5665259941,13217.1305658177,12871.6724863823,12712.9062127532,13013.3456574715,13224.0360968416,13912.2951919205,15441.57352677,14088.2415066327,14080.8295849864,13813.1148189144,15009.8104814651,14530.5949211111,12360.3052446066,12748.004430258,12184.718233782,13911.353352318,15190.97243472,13551.48429091,13393.2937639348,13785.3900530422,13534.087139624,14097.2900494125,14692.4198464693,15925.1221528324
,85,14199.9207931962,14954.4298210088,15691.7716962553,14088.929486108,14148.2279271195,14078.6473529278,13149.351412482,13207.2711081584,12921.2590277904,13959.35149896,14375.4392877366,12525.7700463007,13539.4492690819,14442.6085775203,15068.8973476867,14209.6041056629,14257.8109814548,13791.4379478633,13570.5349813352,13261.19622144,12479.4095632686,14138.3392358697,14264.2408816887,14017.7124371722,13632.0196984212,15301.5406868147,14718.7455399774,14007.0590673995,14185.8448948121,14127.2572865664,13504.1817040918,13407.2433937109,13414.1683758291,14808.9571960138,15063.1907261898,14639.0328703751,14713.0940991717,14662.6953063238,14434.6597765806,14115.6992946515,14526.2490097234,14442.4932511164,12024.4876781499,14120.6052932523,13891.4838166561,14616.1198858136,14778.8405840135,14389.3503107059,13561.5832438655,13976.6075879859,14381.2568870379,13530.9173010738,14434.7752575175,14153.5778825408,13628.4774395581,14109.0053476013,14689.639453451,14630.3852948071,14591.3517843568,14158.4838703422,12989.9745298971,13569.1739222796,13658.4986110562,13250.2321145285,14706.7674507437,13667.8384510569,15183.152583287,14081.3365822339,14183.6047955965,13860.9736756073,13478.9339337772,14878.0504892703,12993.3164926314,12646.9941428091,12486.0196389237,12786.9887210391,12993.7320546391,13675.7915182354,15169.6819136838,13841.2359963627,13831.0583882003,13595.0423138813,14779.2023167927,14306.420797686,12149.0068256201,12502.3381042452,11961.4973379625,13669.643163808,14922.8249177879,13324.1998741817,13095.6308272544,13459.0564877179,13250.229839264,13863.2886824229,14453.6614888824,15673.7932845045
,85.5,14059.1224301999,14745.113500416,15473.1294714691,13873.2660591455,13934.3398886242,13860.5790402074,12898.9726286745,12952.5906239996,12674.893051113,13722.9290314486,14131.3461948445,12367.2270515363,13363.0116445328,14229.1263669199,14856.1044418635,13969.5592533207,14023.9529988028,13563.274829424,13262.0428515514,12961.3216073306,12221.5525310766,13836.772497294,13978.2629611362,13789.1090920742,13434.1771353049,15082.4781447369,14507.4817763614,13759.1814740809,13944.3610986694,13881.3030529508,13172.4081833256,13100.3360757377,13097.3448181155,14565.1636445945,14824.3772908574,14402.9651547938,14488.8052333751,14439.1293034226,14217.8248128725,13866.0576941182,14267.3782609643,14190.8814748335,11349.3890907068,13815.9208981866,13596.6895943005,14380.1910500809,14539.4431589726,14151.5665245004,13345.7510036172,13752.6067127061,14150.12704261,13306.8329648966,14188.5435666236,13918.2740978016,13379.6139279317,13847.1495016517,14413.7697593334,14370.9263065651,14336.6558087646,13907.6688544927,12764.182964948,13327.5362050403,13422.7123256393,13007.9042967731,14430.7142196971,13418.2128190956,14931.7657784354,13848.7264115775,13942.0263412868,13628.3813389628,13260.5869007848,14629.6460775964,12759.0396262472,12412.3687311391,12246.5909904285,12556.7545188182,12761.1759984996,13435.8015066406,14895.7012022637,13590.1501712708,13578.0457452644,13372.3194563753,14543.5146385423,14076.8100658996,11928.4472646998,12244.5653747686,11727.8288953315,13422.7472479041,14647.7477930183,13090.538532733,12812.6954658246,13149.2003356206,12978.9810735597,13624.6683161669,14209.7726045216,15416.1490026249
,86,13926.5709653804,14528.6377856993,15247.7745642652,13651.5074634335,13714.1048888111,13638.0250645668,12638.8408675582,12687.3560818792,12420.101041966,13484.0766455106,13885.1781686587,12214.6736094942,13170.0534337566,14008.3627455688,14633.8293875679,13721.6786969146,13782.5356946263,13329.6562067812,12956.8226057457,12662.9495650594,11961.8345857829,13540.035474067,13693.701962778,13576.3113028535,13228.2821090467,14852.0110630984,14285.2243144986,13494.7481787377,13684.396484337,13618.3056956765,12844.0093136626,12796.0459690623,12783.12703204,14319.2228051627,14581.8442495345,14160.2697270104,14254.123378025,14205.2060901167,13990.2747782633,13610.9968827433,14002.2646242357,13932.9156542535,10708.1521231959,13524.5328647705,13314.4061089054,14138.691553313,14292.2814494183,13907.5035452351,13117.1016332284,13516.5432634847,13906.2576284296,13076.8028832328,13935.5031321756,13676.4608307579,13128.6143808056,13581.5086839537,14134.1828432691,14106.352437089,14075.9223604709,13651.6419636273,12523.0665694491,13070.1883357411,13170.908913849,12758.0845900329,14145.6424091977,13160.2041836077,14672.2667424305,13610.6660622337,13695.728657093,13396.9280195888,13041.5500544032,14380.8616622795,12507.490604795,12162.2575773079,11988.9523528026,12322.2428622633,12524.75055765,13191.2584174046,14617.8187426428,13337.6677716824,13322.5310593447,13145.3674703616,14301.4541454333,13841.2541535944,11692.8945990873,11971.4380969697,11478.2777566301,13168.7615454278,14365.1520983483,12851.0052716654,12545.7691756843,12855.6850306291,12719.3835355777,13381.1672269798,13961.1213442302,15149.9935614936
,86.5,13792.9843325456,14300.9430123383,15007.8263158432,13419.197435858,13483.6116586364,13408.3109867909,12368.2131464311,12411.6905308714,12155.2049244739,13238.0154856243,13629.6872523267,12067.1951093566,12965.4286358898,13773.9285884429,14396.6609278363,13465.585279105,13529.4371854872,13085.886556138,12648.9967147519,12360.8574973667,11694.849378515,13244.6221115757,13410.139898465,13369.1466083776,13009.1621691239,14605.0687436259,14046.9518800592,13201.6311009487,13396.0819825113,13329.1898020247,12515.4380362473,12488.9135877001,12467.6171862705,14066.21779254,14330.0064987541,13909.6326729092,14001.5569803823,13954.1001681628,13744.2921689719,13345.449682416,13725.3213942322,13663.9094489313,10123.4496768902,13244.7337047558,13042.5951902617,13884.6415528608,14032.0296739685,13652.3710519144,12869.4903273294,13260.1184538989,13640.8023109761,12837.0778719983,13671.2394938834,13423.9470107988,12874.3883709781,13312.5461809233,13849.6675789014,13833.1120810881,13806.1264951396,13387.2542248927,12260.9676761971,12788.2881314006,12895.5799612116,12496.453900662,13848.2054739882,12890.1332382804,14402.6193930942,13363.7961891863,13442.4608386426,13161.1127427073,12818.8910057847,14127.821005986,12229.7211129019,11888.0601731251,11703.0523590041,12080.1519559563,12281.3813929597,12936.9202487141,14334.3616487755,13078.6455971503,13060.7573140703,12911.9404828912,14052.1109320338,13597.810041277,11434.6490475423,11676.7108187117,11204.7790805617,12907.2598553355,14074.3800001188,12602.835934589,12289.1911072691,12572.2197465086,12463.2390497102,13129.1520331786,13704.0724350817,14872.1741265213
,87,13646.4440235244,14054.3903021399,14746.8918937572,13174.1855766866,13239.0558719726,13165.1987249229,12084.1541256801,12121.1358510466,11876.3626453163,12976.7977267444,13356.5678060618,11912.7264652499,12741.5789403642,13520.1784915221,14138.0560134734,13190.9712504228,13258.9883696912,12824.8929253768,12321.3915948178,12037.5136949441,11404.0768532987,12939.4921691917,13115.2699300442,13150.525884638,12768.027911677,14333.7765707283,13785.3606637786,12873.2043892762,13072.826627619,13006.6940456508,12174.2153770235,12170.3622139662,12138.9583363571,13797.0081234681,14060.6544830425,13644.4311243401,13722.2611953189,13676.6067337397,13472.2978246472,13056.8479942863,13427.3849636827,13371.5231966817,9583.96369339854,12961.8972034627,12764.0960677604,13607.9795856643,13748.2463969051,13376.9011696229,12594.2834493634,12973.6178989417,13345.7479759043,12577.1208334601,13386.4235234557,13149.5587362577,12611.1010995379,13033.1399202858,13554.6419448695,13542.9150250017,13520.4302943048,13108.1543287861,11965.9761709172,12471.2096757288,12586.0697680368,12210.1439706746,13526.7298993975,12594.4881052013,14113.5403406628,13099.5712051857,13172.1312683338,12909.3136851523,12581.3328128724,13857.1005335464,11915.4147348879,11578.0197122749,11376.667413529,11820.8913118245,12022.1006255631,12662.0861728123,14033.9104810062,12804.3559908861,12782.5928294396,12669.3883223093,13790.0885080219,13343.2248083546,11140.7184494789,11350.9494968421,10896.6371596285,12635.133714566,13771.5384072609,12342.408372468,12015.8790923795,12275.2405220592,12180.8720981904,12858.7843210012,13429.2897785546,14574.9783324921
,87.5,13449.745168047,13780.6156456823,14454.4543816371,12904.6041072451,12968.0857472486,12894.5316012619,11762.9173467587,11793.5442919214,11557.7414823637,12677.3394770034,13041.2552693646,11725.2627595322,12491.4221038686,13238.2371389836,13847.328941365,12874.6597458977,12948.0856713005,12520.7672723359,11939.6060190335,11658.1720358573,11058.255631883,12599.996899057,12778.9636909756,12887.8785072739,12496.7082273472,14027.1657073254,13490.284685027,12489.3767692015,12695.4046720183,12630.9405459405,11797.7556613076,11814.9375503203,11769.7519457641,13481.4849844979,13741.2386192478,13335.1392101595,13404.5405056978,13359.8416211278,13161.8408441238,12716.8537401607,13075.6309156998,13024.4699595793,9048.00211722746,12639.3815094508,12440.403355364,13279.3865392504,13412.0291110376,13051.4856303294,12277.5822098534,12643.8881636419,13006.7688633606,12271.3751147753,13054.5623754928,12824.7771121456,12314.1770603187,12718.6405159386,13221.5027273767,13204.265659093,13189.609680546,12786.486705213,11623.431862557,12105.3447813706,12227.5691888784,11867.115348863,13144.6825076255,12240.6448247614,13779.1583783821,12793.6993463503,12856.2966830331,12623.6319972734,12307.8677304758,13546.8794314244,11548.1965995148,11216.0786983453,10994.6866654856,11515.2753767807,11719.0105024266,12335.2411842484,13681.6981884833,12482.5612893491,12452.582158177,12409.368908812,13508.7714605023,13069.4204377655,10795.6511923164,10979.2428924534,10541.1376409925,12329.8597550279,13434.5930303079,12050.5928794825,11669.1100616136,11904.1694410444,11812.5518445249,12552.1518560228,13114.1202436907,14233.1455604899
,88,13196.4270327472,13470.0871835734,14125.9941496459,12590.5222755026,12649.5848182087,12574.9494768834,11366.2290889759,11386.7032092717,11156.7235564276,12322.3873108814,12667.0364560802,11484.9276039855,12202.7730139663,12917.7413299517,13514.5748424507,12470.3790855157,12548.7917040446,12124.6565924429,11459.88099928,11175.0742920815,10609.4336446247,12204.4642576473,12375.9998446386,12554.1835134507,12182.2408829356,13672.4892281933,13148.2724692728,12025.033581616,12240.1040813168,12178.8264992242,11330.5781102546,11356.5312429989,11291.8566042032,13057.68941622,13311.4492037724,12930.3339459564,13034.4367249116,12990.3044595792,12798.499399401,12280.8000814299,12625.233952105,12577.5575899143,8500.93340648877,12184.4179905746,11977.4545115778,12848.011550906,12974.2034433631,12634.6602952772,11906.2456225548,12256.3685904304,12608.5327004359,11868.6675341136,12626.7771354585,12395.3357601076,11926.8912374024,12311.5774306461,12793.1547421266,12772.345217298,12765.0937678619,12382.771185442,11220.3878495539,11678.2665666889,11805.060178754,11427.8140943246,12657.3784674058,11785.2239682649,13333.5724598993,12381.1442820174,12429.6790233554,12291.4958402248,11987.0732987709,13186.9734971942,11115.9843780938,10793.6545020414,10547.0715589289,11113.2590883879,11323.0779166721,11903.6917344001,13214.0183569889,12058.9367960776,12013.5641433498,12123.6622825896,13199.1686670159,12768.5837250421,10391.8301625643,10556.0851370582,10130.2272229449,11943.7436985761,13013.7976879601,11675.7462873053,11230.2458116446,11442.2738702893,11340.0197592095,12194.8188766985,12744.9847287749,13833.5560942053
,88.5,12863.6931697633,13100.1382357651,13735.2456270151,12196.1857522126,12248.2281074012,12169.5582659401,10845.0247686354,10851.7570199733,10628.0141415685,11885.2618142833,12208.1482843972,11162.7904012069,11842.9137284613,12528.8944418675,13110.1905922691,11901.1709696912,11984.7668545555,11567.163357279,10817.2935501109,10524.8850473605,10010.4837268889,11704.8399249764,11863.1455445395,12092.824868905,11789.7100077411,13237.0213441583,12724.5323892471,11451.7786661707,11679.3789825785,11621.7958376039,10734.112325842,10763.1923744117,10681.5975294795,12488.0585407257,12728.8915640685,12382.2436554659,12577.5902758314,12533.6554934839,12346.4390445951,11706.1587314595,12031.42901402,11987.3711699016,7924.77744274143,11552.3327227667,11340.9346390555,12263.1055622614,12376.1679347083,12066.9112570903,11449.4185050753,11780.3728174233,12114.7388757674,11308.2021100893,12031.1355465894,11795.6235879482,11402.5483448423,11761.5803673216,12213.9845445422,12192.0739608354,12190.4533215825,11841.3408689562,10728.3389256381,11164.7925940128,11288.1774452457,10849.6403559614,12013.6657289797,11184.7103729875,12726.9115558724,11819.1600588812,11850.7799407467,11889.0273259454,11596.9195779028,12752.6873133799,10596.6072702676,10291.9638716135,10015.3866418239,10577.2212443295,10795.8565454889,11328.1265055649,12576.6842637159,11482.112844446,11420.3963446097,11788.8106346072,12837.8332242289,12419.9616347334,9914.49567543561,10066.8749916105,9649.11983843736,11423.1401613866,12447.8898743864,11172.2078118333,10683.7652271487,10874.1631537128,10749.5339070205,11754.5604842996,12288.133847666,13345.4622502242
,89,12393.8523024924,12613.3027744969,13222.4399528553,11685.5173193903,11725.5619607279,11636.4889508296,10172.994750521,10160.9676551196,9945.5238659086,11317.4920119696,11613.2944349408,10709.5191262165,11338.5782224422,12007.4666407758,12566.2561390615,11137.7447933664,11229.0442622489,10820.7197817981,9995.64105007165,9696.96467231702,9251.07683761812,11049.1582749055,11187.3309188501,11457.6182054331,11253.2600028935,12650.8296821903,12148.9939335989,10761.5167929381,10998.0062202766,10942.9939340879,10012.2739550665,10039.3122711588,9941.95381965285,11736.1443264976,11955.2362204385,11654.6850815681,11976.7036574403,11928.5591987686,11742.9265929583,10960.1020829919,11259.9997052621,11216.7657339929,7324.10148573538,10740.6734917847,10527.5447790532,11479.3797041207,11572.4440856773,11303.1752042632,10854.7111067896,11163.1662713042,11467.8791698736,10557.7044252662,11233.2381937012,10989.9951936786,10698.2151557984,11021.3472375993,11436.4044319446,11409.9876516738,11411.6202124623,11112.0142590255,10102.1632728949,10521.9381456643,10628.1869681179,10113.7870080173,11191.6056831877,10418.4563680673,11935.2979793771,11086.438719933,11097.0450098073,11380.3220733313,11102.4311739923,12208.0318965373,9954.37775435105,9678.28144725835,9370.13615771733,9877.68592647247,10107.4085021966,10577.3981874227,11730.1908223844,10721.3456598975,10640.4803053129,11361.7200144984,12377.0863161461,11982.2021745134,9335.65083189515,9484.19438548325,9070.43115238645,10751.5713031634,11717.6407063815,10524.029309356,10015.9997438955,10184.1587135684,10031.3774002212,11181.856681262,11691.8827519174,12714.5276165055
,89.5,11668.831668686,11882.0247875056,12450.8004745467,10982.2215264352,11006.8107003308,10905.5632896643,9349.13249062018,9317.53434319631,9113.17225192462,10578.9121315012,10841.9161024155,10092.3584968458,10601.3717359356,11245.1963843519,11769.1580912246,10161.8617366556,10259.4949855674,9867.45753330266,9013.37427983538,8715.95280619327,8356.98580706957,10209.3636880127,10331.5649324441,10626.7386463848,10492.0811914474,11807.7419413838,11324.846915965,9940.89037916093,10178.8208614425,10127.4199038267,9173.49638205366,9189.39213694089,9079.00402166401,10784.7520671314,10971.2943634711,10726.0725328875,11143.1111201194,11090.5181891228,10907.2310962316,10034.1508055031,10299.780829671,10257.0598264935,6724.21538955705,9749.90824906129,9537.65212895006,10498.8999625744,10560.8523458408,10334.3425341066,10059.3916395383,10340.9447833114,10603.2852991108,9621.20990239684,10229.8439151204,9981.84257762538,9801.88454394778,10080.4617267833,10448.1627313515,10425.0037785938,10423.3453014879,10178.1209096148,9306.88747547985,9706.31036155512,9788.28311967861,9238.22215510515,10206.0446335946,9502.44837920388,10965.9414608124,10192.8775118167,10181.2471631248,10728.4519604924,10471.2162885882,11517.1920745667,9158.18002087524,8922.37087904246,8596.53222632783,9012.58293869924,9251.23112735303,9646.12729950622,10678.5731431115,9779.25777571458,9681.16464764966,10776.500584396,11745.8043794152,11389.1278828723,8628.11293614697,8774.33581791494,8372.3843366127,9934.28646927605,10827.7867191579,9736.37405474622,9234.19555706802,9373.49932642839,9207.26694514193,10436.8906241464,10910.0715945105,11882.4770759992
,90,10697.6138711518,10898.9988677381,11411.8080730137,10072.3240943166,10081.6981256468,9971.31787748391,8414.21251727383,8364.98439258917,8178.37449989441,9690.7759991454,9919.04605675261,9332.41229712493,9643.86595632041,10252.1855120685,10728.6839639228,9013.39285297557,9111.87033099779,8750.55474662675,7936.60933076152,7651.99570001407,7389.89773135769,9215.40459762617,9332.57284874679,9635.58115718344,9524.62394850288,10722.6246863881,10270.7175183131,9009.88277729098,9239.69173227433,9193.10080582554,8239.09702756719,8241.73455046285,8126.62647002853,9685.60818671901,9826.65697422963,9636.47364531181,10097.3478293585,10042.5678076468,9865.26006557938,8978.36599773506,9204.02076678047,9161.41726183028,6171.58114783426,8608.52167379886,8410.69065027112,9378.13025939491,9398.10302025793,9213.19849262733,9094.42055942377,9345.42748939218,9556.58107749778,8553.02733883364,9077.65697958779,8830.74324856013,8758.89486376738,8983.73632139973,9297.81054249514,9295.97654384561,9282.2563888641,9091.87046804552,8383.40077991063,8758.08745335062,8808.7945562504,8276.95041886787,9120.46800720287,8494.0635471212,9868.89395878002,9184.80261904876,9154.79229768135,9908.95679950294,9683.32626543748,10655.3156880014,8252.27110979622,8067.40649481938,7741.54597218644,8036.16119901219,8276.93929688387,8591.65445771679,9480.06414093285,8710.15741941609,8600.44244888217,9993.66867481684,10890.770543779,10586.8949352311,7831.66840153006,7977.42438411823,7595.25262090438,9011.3218125568,9819.40232306743,8845.74495915379,8409.55784832028,8516.82120019056,8362.6452092391,9534.6017310503,9960.97017635376,10862.3242627056
,90.5,9506.44316760163,9691.66670670526,10129.5588975304,8999.13940947067,8994.84784791903,8880.34469919197,7442.02120642236,7382.81429849808,7222.53125103375,8679.21257254061,8869.74506272624,8451.95467747927,8501.29379391262,9060.29774048195,9477.47733962782,7796.27862700624,7890.97681601695,7578.32346317145,6861.30964931256,6606.99479712561,6449.07263515893,8112.99817296522,8235.35298881449,8527.48470486374,8389.10865661583,9435.21124533561,9026.91226488036,8021.65379260947,8231.20539215413,8191.21145794288,7315.01491068998,7316.19693493871,7216.0173116619,8562.77968588274,8640.98011494739,8491.23188209668,8882.40066598696,8828.4782674008,8662.25259493593,7885.77532239496,8066.76548159469,8025.81175839416,5679.20662736272,7498.6295685895,7335.17019903723,8222.5747313109,8188.93311312771,8031.99107315849,8004.29464713221,8221.99574087892,8377.91842718856,7459.88612340631,7881.14101099379,7652.04170523827,7677.55053211113,7842.49767345976,8100.57684676517,8117.11318060371,8084.14006802924,7936.4933675576,7377.87529848502,7721.64920541919,7738.19255297856,7306.44183748747,8015.66628057538,7475.14471754367,8758.16879436129,8173.42997892749,8132.91055895569,8940.72474400891,8752.81402982205,9627.13289592999,7283.02582427916,7153.15767669703,6849.43181641265,7050.77705800046,7283.87363472416,7521.68152680575,8255.45003013295,7620.18008366879,7512.40346767257,9031.50758041254,9826.97329873601,9584.25982384025,6980.01891277681,7126.21820155197,6774.7052127516,8063.780172033,8776.52081820967,7937.36548401047,7568.98578804858,7641.59486313897,7518.6663246467,8505.6541777303,8872.33474365674,9678.29332386344
,91,8158.56422008113,8321.42554697534,8672.09773976259,7844.63668723708,7829.15830813693,7716.05992192581,6537.27778355838,6474.57425399209,6342.37510802678,7599.51652817043,7749.984226417,7500.86840735662,7256.11153175279,7744.99468861261,8094.37775522294,6682.14997125967,6764.55614462907,6504.33980692591,5934.37646696698,5726.97415874748,5648.89816790884,7007.85784630946,7137.56733535735,7400.00322492139,7172.81373301054,8032.81802599285,7683.90991310077,7060.34971512098,7236.92275254328,7204.61904477846,6489.86824486821,6486.26831889091,6405.65701300887,7496.70125598188,7508.00527922042,7392.58567611483,7586.53631557752,7537.19288524372,7391.10468887557,6854.34323161522,6990.98745857065,6949.45471270872,5266.85668210297,6517.59663350127,6387.23232015143,7140.55024876473,7056.94642940473,6916.76040929562,6873.87203938737,7056.80143704675,7162.12645864852,6470.35327964239,6790.28420669799,6584.69870500696,6660.19275774649,6769.2147758082,6974.45884382757,7006.15994322348,6952.72662049355,6833.61835865165,6372.86757301051,6674.74304844309,6665.07635048611,6422.52643971375,7006.55439684403,6544.34066094641,7719.34608709849,7229.20450486158,7185.69997674846,7879.20603945563,7732.90978138581,8487.17138617335,6323.06557314868,6244.07419492023,5985.87778712135,6142.72731668716,6360.17473585827,6526.8446436184,7123.51566038206,6617.04098018041,6516.81938263159,7945.25702879759,8613.65250763265,8433.63485927018,6127.76053518192,6273.58036125914,5966.63125112342,7178.00712846017,7795.03670079184,7082.02770461747,6747.72376325099,6787.11439022756,6710.65904389688,7423.58609396986,7719.90975635421,8404.99051551576
,91.5,6798.65196435607,6929.01431652415,7189.52871441664,6701.14287825298,6681.60859349572,6579.46504912767,5769.21659097423,5712.07705861179,5607.65874021458,6569.05796565249,6683.48108136402,6586.16652096475,6076.70950877512,6462.12576852158,6741.58111504111,5746.38792172301,5808.41463385654,5604.75726267697,5215.75010770619,5062.19923471742,5036.66593420123,6027.69685949922,6162.7625375147,6375.58449819916,6032.77352017254,6682.34776894299,6407.23103179453,6187.31878201489,6327.54141979219,6305.40785275203,5779.20980789527,5768.54799339658,5713.9750503641,6575.20136532067,6523.51212688079,6427.50237479758,6358.33802883064,6321.99232530414,6207.75093725532,5973.43416576076,6069.98606471135,6029.98161383589,4930.93972229318,5688.51664243341,5591.02146408944,6245.02256989055,6116.25728056101,5978.08405671991,5836.60673599038,5987.98035947055,6058.50970782892,5669.52963649364,5895.99720746096,5722.28127816624,5808.26187973658,5870.32907400697,6032.26957526387,6092.05501151511,6015.57327680172,5903.10449482516,5490.34787100608,5740.62672015102,5721.81474987341,5687.70732601504,6159.99354545925,5768.17249749213,6817.19205513527,6413.43717932406,6374.03820148428,6816.87375112041,6710.15037041006,7325.85043890496,5482.02888551187,5442.73095614369,5251.34782977822,5388.89038020056,5584.05619284636,5693.38340034563,6182.54225887299,5784.32934678887,5700.17552128278,6836.03935686017,7360.2749290729,7232.15691935371,5365.96855550003,5508.95934942826,5262.88000458161,6401.19740828417,6928.07716810938,6328.09024628928,5994.91861040248,6007.94142851729,5985.38384416649,6407.186504766,6627.15748406087,7170.24352669138
,92,5699.84168166282,5800.55421580595,5986.48641907423,5740.10158556418,5721.33270708535,5636.79880197038,5172.34735349607,5125.73665407852,5046.13234261428,5704.10644225605,5789.61845413146,5806.86709944539,5167.67344660206,5457.44803968503,5677.95315572523,5059.75128360873,5098.46658541731,4948.19797155503,4723.0816383925,4619.3210943952,4615.59305011675,5265.66775867214,5391.16308476599,5549.0161989086,5162.7055103783,5632.5468764675,5425.29869411729,5467.17045680273,5572.31592990187,5560.61373506602,5207.86007298563,5192.04513937665,5170.32682112424,5865.56420334466,5760.97760723398,5667.76193318442,5411.99017798743,5391.75939941884,5310.03743119193,5303.24599795599,5369.46978640614,5332.75593392499,4670.31712732806,5052.72213807089,4990.35695021091,5573.8871959267,5417.43357746744,5279.41162130408,5056.69452385398,5184.83624639361,5236.79037432023,5089.50533882527,5245.29001315285,5101.42320744555,5171.94829042278,5198.63006527272,5329.2798449679,5417.08017767147,5325.51603069498,5214.47698047991,4846.28184947882,5053.09074757482,5027.71325388051,5121.89639098664,5503.38604373062,5170.56216778862,6075.55470221923,5743.08658781585,5713.46078074582,5868.87120778108,5790.25079530902,6258.7423967754,4869.68089776469,4858.48670253323,4727.5434051091,4832.61814687493,5004.62358650773,5073.81440896368,5471.74256554097,5156.33024590717,5090.96076616496,5853.26279287235,6232.83654997346,6133.81296305316,4797.61405537802,4945.45353905817,4753.30609801326,5751.2193801493,6197.08502553744,5691.71198448248,5364.43874537056,5366.33320688189,5380.26507807403,5575.42370235137,5727.06769047835,6132.22197376718
,92.5,4909.29196640618,4987.58119385731,5119.56573523467,5035.71419635573,5021.07117112134,4952.37333467291,4748.38883337421,4714.08125019643,4653.60146183262,5039.65193688947,5101.10359368305,5194.78278942298,4538.73526333391,4751.31532352507,4926.72581369912,4625.96431009166,4645.5352704121,4535.97908161032,4427.41739916091,4365.33415868382,4360.207263993,4735.51603535269,4836.97462421502,4941.881635731,4565.7581617137,4900.60989489091,4746.9432946694,4936.00011710755,5011.74630760206,5009.63076559016,4806.57981716028,4780.95431503435,4792.96989029298,5362.85115887225,5225.78877291076,5128.09602537458,4759.08046601625,4752.26818391875,4697.38906044067,4844.99370399738,4891.24492605425,4857.88755585228,4485.48292916128,4657.07640678437,4620.92227734641,5111.70635530912,4945.72739810755,4808.87629996631,4529.4390152487,4641.15996684979,4685.5629992457,4711.53672574221,4818.35036593406,4701.10725117849,4746.26251744106,4751.50596344846,4862.03785086914,4962.58350169048,4865.58749068,4754.05382005151,4422.04587856572,4594.66083268034,4566.70151869022,4721.76299190436,5030.84593334771,4747.81905212604,5489.42670210124,5215.22216385291,5198.78518928875,5144.99891499012,5079.13078587669,5412.8971046163,4466.23308966351,4471.03689153782,4388.4751615389,4465.70037300903,4617.26732852582,4661.37545840089,4990.63729179499,4731.62975285504,4686.58459890312,5111.45444123908,5375.25710531942,5283.45994897925,4409.57202844181,4566.36650413624,4417.28418954761,5225.83751536819,5600.12239804963,5173.92821080429,4873.65546057809,4878.25689646502,4895.72999009774,4965.93406382344,5062.37574110098,5351.6538636981
,93,4413.42438803765,4476.42798724894,4575.52084140201,4576.21564601367,4568.69247124164,4512.74319851096,4477.10476379122,4453.85041524479,4405.46404144653,4586.96539687363,4632.83318301664,4767.96242065589,4170.10510458733,4325.9549354282,4469.94066610907,4392.95664023125,4397.93899452284,4313.32194704839,4282.7679233795,4249.02496713816,4227.858994202,4422.02201871301,4494.78443860425,4554.3944362674,4220.31800071088,4463.91840382152,4348.98574404928,4590.01028689876,4645.18824051743,4649.61138713552,4539.62967218002,4500.02651662944,4536.53103500342,5015.3861409923,4872.47362417343,4772.22851921553,4374.45519506722,4377.85548733479,4343.85252941556,4559.62159703193,4595.40812502377,4564.88696045907,4364.73254266281,4412.40560275665,4389.07102743696,4813.54303325425,4655.10943471367,4524.5875673398,4227.90046997856,4330.10520938547,4374.3920329684,4488.04068295827,4568.41043808681,4469.1871947736,4489.98391226481,4486.8932955265,4587.08718386283,4687.31272015674,4594.49014210605,4485.11290028842,4189.45261939655,4337.49442058336,4311.36490946368,4468.58154888738,4727.99414464297,4480.54453564522,5040.08814447322,4813.51796956117,4810.72038541836,4654.89562813925,4594.07079857364,4822.41184589117,4242.11122265934,4254.09051679304,4205.70374872336,4245.48095315276,4380.81117730343,4411.44533895904,4696.24306654402,4472.63057687931,4442.90735407855,4611.89282706092,4796.91820160855,4701.93752970189,4182.8935027169,4348.57199289912,4230.77497085951,4819.07699021347,5131.71338571155,4770.15029703935,4530.00113904166,4544.5690114271,4554.19293017771,4573.83702816878,4632.7768178963,4837.17806411698
,93.5,4176.67353387479,4232.02072495271,4316.34738330579,4318.2454566767,4320.04274697214,4273.6778245417,4307.88144626976,4295.07860819726,4253.95671295526,4328.87571353806,4366.88170106617,4516.96002483677,4016.55195337976,4138.96645042198,4263.10680366437,4270.79101916545,4268.15515950168,4199.67275186212,4211.9915242402,4192.71528458023,4156.87954735368,4271.10657070471,4317.41578553961,4346.62767334688,4077.71504812421,4273.87114091513,4180.74007120669,4382.93672862526,4426.4928724066,4434.86163752182,4362.48302585069,4314.25231003399,4370.50270556014,4782.03064055008,4652.43873546403,4549.02765750035,4208.21705327772,4218.25818982212,4197.21959248714,4394.31080930783,4427.37332157241,4401.60624284744,4289.51298856005,4265.70189204276,4252.52140157003,4629.35098395562,4488.82470684568,4366.39608675625,4103.27506063161,4201.71139775421,4250.0375385707,4359.43585795746,4426.13007339267,4341.02898452559,4348.89009153746,4344.87754279198,4442.17313752881,4533.11024641582,4449.81473358454,4345.36564778413,4100.41620027591,4235.25038678109,4210.59944996631,4312.5511606363,4536.55377770255,4317.65951276972,4723.780808042,4534.74888641432,4543.0150620243,4370.10110323254,4308.67601802241,4463.90428289904,4153.74991540765,4168.13263725695,4138.39179796009,4125.5499106778,4248.31505640807,4275.01382565129,4528.51317737933,4324.64130720774,4308.09165216291,4325.34685235693,4465.63772243455,4361.34825909557,4084.83538834697,4258.80113560778,4158.70225783412,4531.55799198684,4797.67978833531,4485.79112164522,4318.3392572696,4346.15006753704,4339.73806007035,4362.62761079853,4401.5934848968,4553.13742448724
,94,4119.98492592897,4177.25824913901,4259.91707032899,4211.80188707691,4222.59309144042,4181.61951329605,4204.35297258723,4197.7908599573,4160.88280999431,4203.47962485057,4236.92503872841,4381.16061092568,3987.74104289655,4105.90715849607,4218.52898554182,4216.56781395297,4213.26615043162,4151.90419846007,4177.2204228757,4163.45779316291,4117.86433871373,4211.84204408231,4237.19867000096,4250.69822221216,4053.40718686529,4240.23576584948,4152.10789862538,4274.75481318754,4311.8025428941,4321.40916632053,4261.83833217963,4208.81135821338,4279.68474726989,4623.57243781666,4518.19925889954,4416.62214297066,4177.91301544973,4189.68982423073,4172.20962867226,4302.77759362258,4335.83949945715,4315.47397524841,4251.50652263849,4198.69601945375,4192.97181766249,4502.4057389836,4386.85569189483,4276.74294077785,4082.10188737869,4179.73179105272,4229.17607264276,4280.01969279044,4343.03377361973,4265.18228817142,4269.6727334863,4268.77770896007,4366.56572132651,4433.15037781595,4364.89160651455,4270.65357190396,4085.28330242255,4217.30468691741,4188.49462601764,4217.63762043709,4419.31423158772,4220.87144357412,4506.18004314897,4346.13964950652,4362.20032674188,4239.65484449647,4175.73434928432,4287.3907898783,4137.29130353208,4152.69621945463,4127.0758183366,4063.65148907527,4177.10720698624,4204.31964483542,4433.30385596171,4240.72717324932,4234.24490334199,4199.15592640541,4323.31496397674,4209.09384328269,4061.09393474277,4242.52005688642,4145.42604301274,4336.82585072834,4569.77313424766,4294.58620932932,4210.32449599405,4249.98834695834,4223.55006149633,4269.90787821299,4301.62944611116,4430.91498532925
,94.5,4098.29398816625,4160.14680702432,4244.03623174187,4162.11561619088,4182.48845737114,4142.49233419102,4131.31761419423,4130.43190878748,4096.1826626598,4130.29532888873,4161.50377975439,4297.16504521614,3973.86509220982,4094.72879672035,4197.74233318382,4184.64822435633,4183.97708462908,4125.15365963579,4154.36407112499,4142.93895223455,4093.53723604413,4183.77355186683,4196.38662505664,4200.38862542103,4041.75649543809,4227.84914993472,4140.28576516522,4220.12452131305,4254.1876624898,4262.97819876434,4208.22193536028,4152.79061023576,4233.73070378006,4487.48524261042,4417.01949164539,4322.09111456671,4166.73164849137,4177.03429037263,4159.88738844672,4238.5928901146,4273.52975157872,4257.86155052201,4236.73683237987,4180.06637032488,4177.39989616115,4392.56896893647,4303.08528015076,4204.36219337124,4071.90016625001,4168.33246020894,4216.6758527878,4215.07029270294,4274.8185430287,4204.56942413466,4215.69023836659,4220.79928106428,4320.74857677564,4348.52208552936,4296.01662994595,4212.64686837236,4075.6952365066,4205.31601092684,4175.11135403851,4156.79824270383,4341.80606163527,4160.62161903825,4332.66334348526,4202.29037483343,4226.10908062507,4192.20801159495,4127.89269468684,4217.83521692571,4126.00931128609,4141.82872934253,4118.15505970551,4025.49575500469,4130.09754147572,4160.10196098888,4374.55696782432,4189.74667085711,4192.01786001419,4148.10459124355,4276.45010279709,4158.18372832031,4048.15028256716,4232.19990441533,4135.7280404825,4182.59761844354,4384.71923244613,4146.74888717975,4156.74835684682,4205.25801213539,4163.55598797094,4219.89282176557,4251.51752578584,4374.03104643405
,95,4081.39557069532,4149.11248091549,4235.63280926212,4130.03855700537,4159.99385006237,4122.80754929164,4093.72964672304,4093.73040149427,4061.2434867877,4113.90666835823,4142.82710872231,4259.4646877981,3963.3473448227,4088.8410551619,4181.53081049557,4161.16058008338,4165.51799046496,4106.59133333074,4144.22892940023,4131.28864060745,4085.19189140128,4175.49059220838,4187.91110200318,4189.81046322834,4034.08327446254,4221.45086520741,4130.03507171428,4194.41250043175,4226.32986642956,4233.48771133563,4188.43862932671,4135.58358068243,4220.04807020348,4385.78816612161,4345.57639175118,4264.13848830323,4158.003705471,4167.94365220591,4150.88079953198,4196.43922716148,4228.87430321148,4220.72593807575,4225.01760361353,4167.75255287762,4167.89694714426,4319.99831324414,4254.08004123524,4161.08978580014,4064.4902457209,4160.31578887799,4205.66637917251,4182.16295498618,4243.09858757269,4174.91759973552,4182.97155376791,4192.00088512876,4296.12901375477,4290.23902063912,4250.29567743205,4171.31795812891,4066.22409124474,4194.27239379943,4163.13721033628,4123.44842853967,4302.87172849066,4130.3571385221,4284.29204683688,4167.86078651169,4190.65227508706,4171.32280527065,4112.06339970355,4196.22649956048,4115.85967965463,4130.92554108056,4111.05692988567,4003.7019622273,4100.60898209158,4132.68247559011,4343.75018890939,4162.80503195236,4172.86518935853,4119.05287284649,4253.35371659471,4136.69928284465,4041.31793835013,4221.57045589114,4124.85416641738,4157.49963141979,4354.68383795561,4125.42130131438,4141.59737921526,4189.22908757578,4147.48305374529,4197.25788404135,4227.75094873696,4353.77566360089
