,Temperature,A1,A2,A3,A4,A5,A6,A7,A8,A9,A10,A11,A12,B1,B2,B3,B4,B5,B6,B7,B8,B9,B10,B11,B12,C1,C2,C3,C4,C5,C6,C7,C8,C9,C10,C11,C12,D1,D2,D3,D4,D5,D6,D7,D8,D9,D10,D11,D12,E1,E2,E3,E4,E5,E6,E7,E8,E9,E10,E11,E12,F1,F2,F3,F4,F5,F6,F7,F8,F9,F10,F11,F12,G1,G2,G3,G4,G5,G6,G7,G8,G9,G10,G11,G12,H1,H2,H3,H4,H5,H6,H7,H8,H9,H10,H11,H12
,65,86.4441272292429,69.0284405031462,86.8312900045808,4.54322167326973,10.8931573037603,5.73287288564006,25.4188108694425,30.3156314706789,26.3705482443875,-56.6170058304251,-63.3017658667582,-41.5491482045845,104.439111036316,94.9879423649509,53.4571173454933,19.1073300469293,-4.74938910348328,42.1255237239507,-0.128485552490929,-14.5276853947607,31.3416031597026,-4.53378436510229,-6.24597061502755,-27.1489116801467,112.682095857066,100.445838384307,31.5847575783832,-55.3616401143618,-59.7257129306204,-68.1726033202472,2.6921482306102,13.3198758920144,17.1642568126558,-26.2947245396326,-41.288503947299,-54.8480975986577,87.0353093215604,85.2343945918014,103.971972549319,-43.3919636561677,-55.2680842807194,-45.0119418452914,25.6471654974152,65.7848981946386,80.9816378400633,-47.1104217387087,-48.8917094151402,-43.2282563005347,107.900293253853,116.602491755863,100.975188487695,4.58747119806822,-35.4082770806695,-3.74396130573223,-10.0321248918681,-43.2392969606099,-44.2957684576381,-21.9844502097731,-15.8523977105701,-3.20730868542068,124.242543520588,108.052839230708,107.474789650262,16.1870365476939,-9.96179900498146,23.9275440144993,-26.3271010674753,13.4950397766274,7.15001393409102,25.2034116165091,17.5540819902767,-7.99388064863888,109.403064861343,118.766330153701,134.354322229551,-5.05342941497202,-1.58997684973156,-12.1975605989278,2.85931376856388,-3.17617268867889,22.8500587832627,5.40165516287698,-33.0078254824784,-25.9312108244353,90.4300789693766,133.278657562494,113.730571575039,-14.2909343268225,-22.6690291299897,12.2174030596757,79.2749040695894,28.4022354242779,74.3396206733819,-26.0889473565721,-39.1135827861726,-74.5851080507741
,65.5,187.295608996692,149.561621090149,188.134461676593,9.84364695875001,23.6018408248124,12.4212245855488,55.0740902171265,65.683868186471,57.1361878628395,-122.670179299258,-137.153826044643,-90.0231544432654,226.284740578688,205.807208457395,115.82375424857,41.3992151016823,-10.2903430575461,91.271968068565,-0.278385363729285,-31.4766516886493,67.9068068460201,-9.82319945772269,-13.5329363325586,-58.8226419736502,244.144541023647,217.632649832661,68.4336414198319,-119.950220247784,-129.405711349676,-147.70730719387,5.83298783298824,28.8597310993655,37.1892230940871,-56.971903169203,-89.4584252191494,-118.837544797092,188.576503530046,184.674521615568,225.272607190192,-94.0159212550279,-119.74751594156,-97.5258739981309,55.5688585777357,142.533946088382,175.460215320138,-102.072580433873,-105.932037066137,-93.6612219844928,233.783968716684,252.638732137705,218.779575056674,9.93952092914833,-76.717933674779,-8.1119161624224,-21.7362705990454,-93.6851434146511,-95.9741649915509,-47.6329754545104,-34.346861706239,-6.94916881840572,269.192177627939,234.114484999863,232.862044242234,35.0719125200044,-21.5838978441234,51.8430120314151,-57.0420523128641,29.2392528493579,15.491696857202,54.6073918357692,38.0338443122678,-17.3200747387154,237.039973866246,257.327048666352,291.101031497362,-10.949097065768,-3.44494984108815,-26.4280479643426,6.19517983189053,-6.88170749213759,49.5084606970709,11.7035861862314,-71.5169552120387,-56.1842901196082,195.931837766981,288.770424718739,246.416238412587,-30.9636910414492,-49.1162297816427,26.4710399626297,171.762292150782,61.5381767525996,161.069178125666,-56.5260526059074,-84.7460960367084,-161.601067443346
,66,172.888254458485,138.056881006291,173.662580009163,9.08644334654218,21.7863146075192,11.4657457712724,50.8376217388859,60.6312629413578,52.7410964887749,-113.234011660857,-126.60353173352,-83.0982964091681,208.878222072638,189.975884729899,106.914234690984,38.2146600938677,-9.49877820696565,84.2510474479059,-0.256971104980948,-29.0553707895224,62.6832063194033,-9.06756873020549,-12.4919412300505,-54.2978233602926,225.364191714136,200.891676768607,63.1695151567678,-110.723280228727,-119.45142586124,-136.345206640492,5.38429646121995,26.6397517840296,34.3285136253112,-52.5894490792643,-82.5770078945993,-109.696195197312,174.07061864312,170.468789183602,207.943945098638,-86.7839273123336,-110.53616856144,-90.023883690586,51.2943309948332,131.569796389276,161.96327568013,-94.2208434774248,-97.7834188302804,-86.4565126010702,215.800586507708,233.204983511727,201.950376975391,9.17494239613688,-70.8165541613344,-7.48792261146718,-20.0642497837343,-86.4785939212129,-88.5915369152776,-43.9689004195484,-31.7047954211471,-6.41461737083591,248.485087041175,216.105678461412,214.949579300527,32.374073095385,-19.9235980099602,47.8550880289986,-52.6542021349514,26.9900795532535,14.3000278681866,50.4068232330178,35.1081639805548,-15.9877612972755,218.806129722689,237.532660307398,268.708644459103,-10.1068588299363,-3.17995369946948,-24.3951211978583,5.71862753713003,-6.35234537736142,45.7001175665268,10.8033103257521,-66.0156509649587,-51.8624216488693,180.860157938755,266.55731512499,227.46114315008,-28.5818686536422,-45.3380582599775,24.4348061193541,158.549808139187,56.80447084855,148.679241346772,-52.1778947131452,-78.2271655723425,-149.170216101546
,66.5,172.888254458454,138.056881006295,173.662580009185,9.08644334654764,21.7863146075597,11.4657457712819,50.8376217388964,60.6312629413178,52.7410964887413,-113.234011660834,-126.603531733507,-83.0982964091718,208.878222072607,189.975884729935,106.914234691016,38.2146600939136,-9.49877820692836,84.2510474479459,-0.256971104985041,-29.0553707895069,62.6832063193547,-9.06756873019185,-12.4919412300287,-54.2978233602648,225.364191714159,200.891676768569,63.1695151568183,-110.723280228734,-119.451425861212,-136.345206640472,5.38429646119448,26.639751784071,34.3285136253198,-52.5894490792257,-82.5770078946507,-109.696195197345,174.070618643073,170.468789183582,207.943945098621,-86.783927312345,-110.536168561488,-90.023883690581,51.2943309948696,131.569796389228,161.963275680097,-94.2208434774911,-97.7834188302986,-86.4565126010862,215.800586507762,233.204983511755,201.950376975395,9.17494239613052,-70.8165541612811,-7.48792261144172,-20.0642497837507,-86.478593921242,-88.591536915274,-43.9689004195598,-31.7047954211484,-6.4146173707677,248.485087041181,216.105678461422,214.949579300567,32.3740730953205,-19.9235980099315,47.8550880289631,-52.6542021349328,26.990079553294,14.3000278682193,50.4068232330051,35.108163980568,-15.9877612972632,218.80612972265,237.532660307404,268.708644459062,-10.1068588299418,-3.17995369945675,-24.3951211978633,5.71862753717323,-6.35234537739098,45.7001175665218,10.8033103257599,-66.0156509649933,-51.8624216488606,180.860157938767,266.557315125011,227.461143150074,-28.5818686536477,-45.3380582599607,24.4348061193682,158.549808139211,56.8044708485572,148.679241346764,-52.1778947130888,-78.227165572353,-149.170216101491
,67,172.888254458689,138.05688100625,173.66258000902,9.0864433464958,21.7863146072195,11.4657457712397,50.8376217388163,60.6312629416379,52.7410964890232,-113.234011660978,-126.603531733617,-83.0982964091427,208.878222072833,189.975884729652,106.914234690772,38.2146600935384,-9.49877820722668,84.2510474476089,-0.256971104939566,-29.055370789647,62.6832063197439,-9.06756873031736,-12.4919412301988,-54.2978233604867,225.364191713959,200.891676768892,63.1695151564181,-110.723280228671,-119.451425861424,-136.34520664063,5.38429646138547,26.6397517837527,34.3285136252543,-52.5894490795222,-82.5770078942523,-109.696195197087,174.070618643451,170.468789183726,207.943945098762,-86.7839273122377,-110.536168561118,-90.0238836906133,51.2943309945326,131.569796389607,161.963275680364,-94.2208434769223,-97.7834188301531,-86.4565126009625,215.800586507328,233.204983511549,201.950376975395,9.17494239619418,-70.8165541617109,-7.48792261161179,-20.0642497836034,-86.4785939210501,-88.5915369153031,-43.9689004194356,-31.7047954211034,-6.41461737131749,248.485087041141,216.105678461371,214.949579300239,32.3740730958289,-19.9235980101776,47.8550880292469,-52.6542021350947,26.9900795529538,14.3000278679406,50.4068232331069,35.1081639804752,-15.9877612974042,218.806129722923,237.532660307368,268.708644459406,-10.1068588299358,-3.17995369951723,-24.3951211978278,5.71862753679761,-6.35234537714678,45.7001175665746,10.8033103257276,-66.0156509647295,-51.8624216489297,180.860157938673,266.557315124882,227.461143150121,-28.5818686536118,-45.3380582601039,24.4348061192472,158.549808139038,56.80447084854,148.67924134683,-52.1778947135526,-78.2271655722898,-149.170216101936
,67.5,172.24850718815,139.490354297207,175.407214633607,7.80685132766621,20.6809498163452,10.7482604362654,50.9465426226075,61.1757279713224,52.5778047271415,-115.701065967909,-129.614117726641,-86.5291096373194,209.024941342104,191.319387995754,110.960003629542,38.4464396009048,-9.4891198181931,84.39099547671,-2.13090866784432,-30.7908130331634,60.6926221374019,-11.0468300051562,-14.8519863846382,-58.1017112623699,225.988728029017,202.454430470297,62.1602320254196,-112.336070900848,-121.737703146425,-138.629502867356,2.30529081446457,24.8455863240983,32.2057466140632,-52.5979371810422,-82.5873871777803,-110.692667831655,175.679157645178,171.504135262775,208.648558707041,-87.5989872988498,-111.283233817935,-90.8074511635155,49.2047992668781,131.527456796282,161.986965321576,-94.0630530528611,-97.5400932098364,-86.6024007565516,217.198906025147,234.484312694125,203.49910899265,8.33807747267747,-71.0729604739904,-8.33612058419385,-21.2938012423347,-86.7531282969676,-88.732573558028,-43.5820895367933,-31.2590765969062,-6.3175240008436,249.527132101393,217.385926546819,215.794642240777,31.8672792352668,-19.9516383538867,47.1732103811605,-52.9222165230708,26.8764499415033,14.788232783596,48.4768363676349,33.900962644625,-17.5545161051969,219.448219632604,238.317382900516,269.516390489017,-10.7878360018713,-4.07329267628302,-25.3040201959825,6.146871039708,-5.27483277676038,46.394770597572,9.71633198215932,-67.2215482008892,-53.5514909999597,181.397993923003,267.21500128569,227.586534688459,-29.2214542191241,-45.5996221747982,23.817653259192,157.743170889895,56.4274001929739,148.166998487838,-53.2077933121732,-79.2732077563855,-151.159102460082
,68,176.384681995407,129.873873046753,164.820650236083,16.2354583799088,28.0703561279674,15.5504670737118,50.3616106109089,58.2786880606354,53.9512260073911,-99.3990511381412,-110.018338924977,-65.3600690140456,207.729470906698,183.091806155814,86.3090166634643,37.8593275364847,-9.5916969078603,83.6867595131612,10.2842500757388,-19.619374899502,73.5354721345402,1.72580158653818,0.729763816381364,-34.3429598949629,222.113538144578,192.750269823962,67.6471553342299,-102.216974841786,-106.706576763898,-124.057764268921,21.4991789285118,36.1992559646146,46.3883262772788,-52.8185699187147,-83.191549682836,-104.668465963901,165.872957092349,164.509464060865,204.31640053799,-82.3742875341754,-106.592110639753,-85.6218925104899,62.3769823600901,131.92534711701,162.452856930642,-95.7518272690718,-99.6529183447142,-85.7011472627942,208.337945539579,226.536573553159,194.065301224658,13.6830721884653,-69.5725316758458,-2.56980489857415,-13.4328368448496,-84.9145696005908,-87.969883917764,-46.0859209222099,-34.3514475390948,-6.87866662239503,243.856545301254,209.233003032684,210.464893909899,36.0658510704129,-19.7942186184796,51.7101965045636,-51.2703616745353,28.2264687449097,11.9134893714654,61.1016817195382,41.914371608354,-7.83039233040836,216.021602303769,233.384422837808,265.287027864285,-6.34037440014163,1.89167049332764,-19.2413514134555,3.24806902823275,-11.7932033315319,42.1039962306645,17.066111953518,-59.1794484820152,-42.852510049875,178.15372996695,263.639252550716,227.445829974561,-24.5879322302389,-43.6194913097183,27.5348823646314,162.881130279544,58.7409725198049,151.798671083837,-46.5391229931988,-72.1070964343758,-139.118927336107
,68.5,182.520582386385,116.772328849891,141.541571284934,28.393804610077,38.0096375012886,21.7497543537079,48.4912063585884,48.7428745331563,53.6977592161397,-76.7701301033353,-80.1886433355821,-24.2341551756685,208.074546689837,166.196644860296,34.1538560826907,29.1981643419517,-9.68610993900347,81.0647858243833,27.3530885414852,-1.9519230188871,95.0804251053919,21.7467705324179,22.7022298841221,8.08768989651844,214.282042954206,173.460088106496,83.4076726475141,-83.8422391611753,-85.3679181414986,-100.074918607512,56.8389510693955,55.4177050442145,64.8751750759916,-51.9305091370175,-79.9662245083996,-92.6985522887089,144.470655401949,154.636268867804,194.991279644369,-74.7784044128175,-99.0984133781253,-78.7695515306714,84.6574679961986,130.843592135292,158.415330195826,-93.7882850268229,-99.5576523804434,-84.5937595489208,192.302032393267,210.879926559506,174.229841949225,22.3608207398902,-67.4777650922706,3.98380747712235,-0.747974233940568,-83.7195515209237,-86.4488794257236,-51.2370174112684,-38.0916631576874,-9.25964209790254,225.617103396974,194.570432116461,200.669403560107,35.0470543564279,-20.2061260367354,57.6327002235712,-48.8959650633456,25.0259459740137,4.3475539734668,79.6924340301916,52.4836704771119,10.4152850129003,204.114910697577,223.524898216408,250.113715638251,-0.0974131915008911,9.58583863717649,-11.3821449958286,-1.32874369303954,-26.7181086282221,33.0767832244114,25.6248017483504,-49.0213084716452,-24.9093672420777,170.956252330536,252.120551417109,221.765862385688,-21.7726367398873,-43.5901715761916,35.4165979417467,171.782449133635,62.7207704459252,154.871830433042,-36.5897387632922,-64.4485854628388,-115.330407047755
,69,187.728072834907,114.740894027569,128.320994420673,32.4980056511413,39.0920955842189,24.2909162064448,45.6929884005267,37.391328655081,50.163929284176,-64.6321334437794,-63.5841885093641,9.05121606116245,212.620200840221,153.231909227919,-0.735507316249368,19.5644700481221,-9.10097389933981,76.6672295073554,35.2226403134223,9.9428942585937,100.310154030019,34.8151854752036,32.1212926680437,49.9304810880049,210.594127939133,163.106063540569,106.07182800529,-71.9362769570466,-72.8852576815748,-81.9284595542572,85.9940569446107,71.4980866169012,73.1709009869387,-43.9343766533307,-66.9218179379927,-78.4487935832776,134.010279664499,157.837544992443,191.184042327049,-64.1894489709293,-88.4449386202227,-74.5482636584638,107.125619907792,133.232397571641,148.884056368383,-85.4530277499521,-90.8217423419142,-80.806024675243,184.541038939182,201.325800567527,158.830640625031,29.1314817379925,-55.9811436609184,6.91227496298825,9.16758332521795,-76.6931800621733,-80.412930419011,-47.3129271518251,-36.8516565812483,-5.64076324457483,211.807090685997,188.766417441333,194.468307644044,29.1008946322677,-16.1247823452923,60.9031503527817,-42.1729920287939,20.826439979015,1.96285588761066,89.9882777195248,59.6174164266131,24.6721086182829,196.2154210619,221.842323846904,237.215311020836,5.38406473980285,13.3794738854517,-7.25140859333396,2.40368019362586,-32.5796008647112,29.7836106650429,31.0104499431591,-42.386400323679,-8.91144322159744,165.620385720298,242.54029331191,213.31952518895,-21.1213219581155,-41.6322822737225,41.6789814221052,175.826051948355,68.7077537070791,154.030180312506,-28.569831268801,-61.526286312152,-85.0062785639061
,69.5,202.656830717526,124.344780611691,133.904141682885,45.3754789678446,50.6885336236505,29.8196951010536,47.5331803906461,37.4739215642467,48.9705513587128,-44.0526667564268,-44.3801448907293,43.287298840572,221.214989747321,152.599694540794,-14.2468890002879,24.5152425102451,0.665840873948127,77.0014504166647,51.2657658078451,31.5742233302672,102.02604029619,57.344975276103,53.3268007215429,102.641305377232,214.328323473617,167.883057260743,144.573771650701,-52.1210324906092,-50.8900922518478,-52.6176438577322,122.192238589254,99.6269791588338,91.2760217940427,-26.8058812793524,-41.102243690847,-49.9995894203976,143.494780742098,174.990384820224,201.729595569172,-41.8365718716054,-62.0033659595429,-58.2544267733424,142.429422121809,145.292543738508,151.947547270547,-61.252288631536,-74.2225881195022,-64.2053050978298,187.534087111409,206.223696369464,158.901439327181,41.4279115640338,-29.515339587856,18.7299881868953,28.4395239169116,-54.2831769357308,-58.5264593900311,-28.063635790465,-23.1922077163954,9.79921780728137,212.165081769517,198.667102719372,200.697671570591,33.3765096090774,2.19809371563679,70.2645019673573,-24.4857214761582,27.0278767737805,12.7768955163119,106.635915630877,72.304569746047,49.2804572998539,199.286165869446,234.355101756163,237.501953448736,17.748032375343,24.8649273981878,2.87599912522683,20.9227208920238,-23.9326705334356,36.6888300986534,43.8242925461373,-21.8148060187509,15.8717789679768,168.015847958125,246.689198602141,216.313860555565,-9.32136864063978,-25.4168855333041,57.1442416205578,181.501709313147,89.2146316244325,162.539132771893,-11.0323559603848,-43.4258802529544,-40.3387995372777
,70,224.431009089906,148.793397635253,163.670023880026,72.8980603766067,80.5979717680389,49.7503880516529,66.8298336012545,51.1890789472704,60.1558822655024,-16.3049309235839,-11.7058161206737,79.5258452811895,239.146051365954,172.323975703246,26.4770724434152,47.7281232306864,29.4793545356561,93.7329370948191,84.4621829471598,68.264164644173,115.467450984199,89.4099544819637,94.122439211651,158.66065254461,229.296094418042,192.769414068678,186.845768066668,-14.9082580743438,-13.0940536084076,-8.79676027559935,167.785179646276,143.689403273008,125.662760475485,6.42152536983986,0.172327636425052,-9.10292831214474,174.363237890423,209.02250225428,230.275580196411,-7.65163012307357,-21.3095630333846,-21.5416670700179,187.663357518634,175.061956816246,176.164917138265,-19.1312766411716,-43.0187161921863,-27.7886232069081,211.949585008194,232.143964280851,184.774045000648,63.5838980561948,10.1170293067762,42.5203094540293,56.8924628470272,-16.6927822871539,-19.1022584215375,3.53454169852557,9.60686019011291,38.8752424714012,228.149229842849,227.905827859034,225.945819892871,58.2680710843647,41.3637814208596,92.9213498660934,13.2751441984501,45.3505931217028,38.6595963059481,133.191859034761,94.5729740864513,90.7792689956582,213.544222144642,261.686903877404,251.178083018332,40.4492564297821,44.7939859998078,26.0456891346348,54.3700314574817,-0.869499318916496,59.6893376447183,67.9263703876859,17.7475888556478,51.9703132305426,183.646242650716,267.452080618238,231.527563005917,20.4916494071131,7.91741296362625,82.5223808061573,197.570001325651,124.180057606688,184.176997271347,22.2120919795329,-4.0649877415708,11.8455991686005
,70.5,247.886383650404,190.498513174408,215.344929373753,111.382915172681,122.499087533111,90.5234266753619,100.955289093486,77.269260057697,82.6506954261085,23.5504451847405,37.5963039180474,117.450730522139,263.227248058014,210.250580468688,112.064503084523,89.6266387978208,70.8410097415135,127.969203437404,131.55327134011,116.040516371777,141.615109881812,133.315959762472,144.878093896368,215.869330930225,252.450657205417,233.287739731402,231.772156414854,39.5142736670223,39.2491644253482,44.6169634035314,219.078576035654,200.491790772472,174.927165158329,56.2990477111757,55.2419991505822,37.8910185302452,224.433370780802,256.548353539238,271.348521807606,41.9423822325871,31.3436146050185,31.2889319858205,242.529981154643,222.953268180809,217.602090621249,34.3006802684599,7.34486075921814,25.7147543883993,252.447581232646,273.893047581951,227.278939653338,94.7831136066311,66.5792327818544,79.7061244895476,88.3149991677224,35.2685958773573,33.1639263801908,49.2357298300494,55.3446788087876,79.1844927533975,258.169500445817,271.499317306212,264.112468473445,96.9748722850077,95.4247442243482,127.110842204639,67.9842564191777,80.0064154970614,81.9115073931143,169.995974918419,132.412707785732,147.253031971004,244.639932913162,302.389482776489,281.384294257343,71.8311639364156,71.7257665893676,62.0689630477159,98.3387295896014,42.1029809539427,95.0745699703848,105.430515886893,73.9211959236768,95.8984419841777,213.72451195195,305.77922113197,259.487958767289,69.1955055194753,57.6852173817365,112.402873742061,223.299971591907,172.87497355956,219.25427645601,73.5706722610971,50.4411950879576,75.6315220245447
,71,275.794060714813,240.306388499072,279.988630359976,162.281186347847,175.971846321639,145.706909368117,140.405570301258,121.413257551014,116.392453352936,79.9412054472573,94.6004579205078,154.676766366308,285.940190285094,259.70981769498,201.041492448182,147.082297759179,115.499636437479,176.706593266797,185.251421704581,168.561131894332,175.080929027545,187.914295939834,199.678864765993,269.373972794878,281.20304627374,282.854764424055,287.402333738459,103.596303466022,102.701018777259,101.369643308592,266.927172617362,260.71805240474,232.077820623521,110.677315699427,115.98062558705,88.5479632901643,284.041844025479,307.829653304561,316.63804873114,99.4940411779785,92.9670608699366,93.6849469541994,297.114568542316,278.780421623355,270.015107539917,95.7129858660542,67.423272378353,86.4877699419362,299.298041806074,322.393743210583,279.530370587154,132.004735456877,127.792522641029,127.189552141131,124.715602568393,93.2992343289984,91.425258741725,104.418632164969,109.115948312339,126.590033690861,301.475087315312,321.437166674119,308.969250660441,142.204243862003,155.168513617216,167.245257099968,127.42910760501,128.054200944904,136.288315538585,216.651478417225,185.145352998674,210.62994675451,289.341729085471,348.947056847485,323.223525233173,109.648228893037,107.50828836375,105.378076646159,151.653901621926,97.3647400491172,138.684398603284,152.456527635728,137.452875701041,142.499274907711,255.514782402047,358.140923034728,299.855318987014,126.832992765337,118.925264731544,148.933547942187,257.272103050619,230.737357187279,263.72513156885,134.338980023616,116.470674968797,140.857647170416
,71.5,305.554848321488,284.09200366106,344.065212378064,220.770562445928,237.0771493482,206.255017346964,188.312208917102,176.774126126817,161.201147414832,146.232201347746,154.301366039532,187.838245418636,310.002325554677,314.894042853908,288.278754051587,208.731824919052,150.458603112757,229.909252375024,242.102853350515,220.103515809225,217.456999766211,241.912561913253,260.295327186148,311.962983218288,314.302230984888,334.346011534224,342.088804354512,169.497865711511,168.203502967937,155.847330967882,310.35024418758,315.734220320354,291.364599068026,164.274435483283,169.898472804454,136.996920544909,338.689781620502,354.668395887285,363.088338064097,153.135193831646,151.096749997548,155.927945282952,343.945504937099,329.876265163468,324.418468149303,156.376779861735,123.577075122318,146.113949399215,346.606646690148,370.282157551806,338.126587037425,173.711180077732,183.403621955694,179.550716785143,167.325451367816,147.690294583071,147.855752989335,154.748742225539,164.168775912682,173.871158648089,348.566295501497,372.125966531813,357.058850773602,196.651367857374,215.704706084926,211.063689900451,186.562185461223,180.767926339043,189.125178270763,266.040642491787,239.812416055807,269.926382701877,334.575675224526,391.544865958261,367.376476575898,151.144003996234,148.607131707765,153.296175475176,203.933439369444,152.948009712138,186.584210501117,201.407641545706,199.360268981677,192.178773262872,301.328134821149,409.877007130712,344.525808286564,184.883173131883,184.211082685823,191.0480566202,296.747679867516,285.157317454085,310.622053440684,194.68245036335,185.89475686506,194.784730578877
,72,330.371217365819,322.265524060193,397.045565067398,272.407692401246,289.927679488604,265.807810548275,237.076675661114,228.093768111392,207.073613764127,206.142373061145,215.083065693926,215.2259723557,334.451148193902,363.469200289877,364.4626465481,264.079355887447,169.450625084785,281.843345217825,295.218879239593,265.397231917576,264.722823623246,293.261840306269,315.513557518947,342.170911917879,345.827793265971,379.792648023074,386.83474097648,229.815738424216,224.323019701776,202.771984094332,346.655861068638,361.369993750452,341.955142692957,211.754763968581,215.005742512501,176.36558112284,383.714643050106,397.264450789435,403.596054295653,197.927736617279,200.328262633309,209.375705148669,384.25774780989,375.346183806169,372.502214492476,206.488323918537,175.236066055536,200.207175451529,388.043911082487,409.629993006315,388.841985349367,215.688588034455,231.32642171832,228.307957641236,206.391299638394,196.023594285345,196.429962529286,197.323150315199,209.646027307938,216.37636164449,388.224012357136,415.787077560481,402.733279967526,247.080562967778,265.756945601804,253.146761438264,238.746937565629,232.463917718897,237.673798812202,312.885319194379,288.31148137641,322.398628644929,375.044233911975,424.856445004108,407.03858570643,191.955601923496,188.505858736213,201.990422119406,248.017291637113,200.972684560506,230.482385236886,248.634200988064,257.030739729239,221.83650677503,342.430588407944,453.946194774317,383.060678146824,238.598564359226,241.704152282437,231.369517761353,336.438206790252,331.452468009128,353.622132240603,246.767516614596,245.819169005405,241.270350026179
,72.5,350.030735777294,350.127703237402,436.237985123234,315.043626169844,326.94431669963,315.744122202532,272.062235576763,270.102903988816,247.593669229327,253.753953377685,266.392448534971,235.416977709001,351.350218286344,397.714709335798,413.27835357125,309.699124048348,180.245116269462,324.151246230364,337.735082691594,300.250121992156,303.379510924915,340.03473581631,354.657849635572,365.590103089624,372.248769211114,415.855281663213,422.442939426477,279.354963154178,272.270240104723,224.149213288473,370.413768261763,392.572684594725,382.377635281261,251.047985061269,252.652864021664,207.647240299832,419.967210799262,430.798786858673,432.412300516121,236.111156099596,242.660878938196,249.585900972893,415.182383107324,413.886213974125,408.45908762967,244.00535481571,220.798318537142,240.044264329912,417.992772903959,436.414860121095,427.790534576792,251.56984047084,269.268109210153,269.276286223052,239.071558968042,237.577537596725,237.324425309274,234.786949862523,242.881296220527,248.099104862918,420.324793503989,447.519804119632,437.869001489965,281.640836978956,300.822386262666,287.472061099531,280.900111923341,279.850474324613,281.406250677998,353.900716382615,333.330983362665,363.197165949249,410.035917600759,449.807293862114,438.293581241411,228.671319157449,226.296964628682,245.567420004961,285.027562915197,243.001005448546,266.167954714753,292.501202521512,304.357830041659,226.333875611122,379.712485591525,486.349147769069,413.064041807525,282.527127384251,284.007624590464,266.062343885773,370.888370760961,370.234374540894,387.350052246678,286.844064369644,290.948745573413,280.143687726542
,73,366.008826008675,364.750252058628,460.697923382959,348.874049874297,354.634050946018,351.94934939313,298.356392893805,302.360744589526,281.683396133297,295.203159019609,303.452061804523,251.98242213777,363.566692503342,420.815228810573,439.205732488999,343.050802632727,189.461039658661,353.557754363076,370.683802244779,327.066067864402,333.604331122869,376.955785209614,382.562448842145,378.986104493707,395.695470496962,444.718846384384,448.006272928184,317.170021629268,310.446309176656,226.520863454362,386.399745080654,413.086408366328,412.563407069003,280.716590516304,278.79423059101,231.802293356283,443.744992381531,452.033087096607,452.053764069898,265.894395337095,276.066349369672,277.514053017721,433.180102801984,436.278971531429,430.46644594206,274.357438763842,254.147073943645,263.802390538622,437.042088698073,454.099895069745,455.678987590386,280.838987641948,296.46377370072,298.257360541887,268.923329915444,268.705531216596,271.057091693061,263.987744393741,271.138949876636,269.786793603994,442.897394010743,471.23537891775,463.751219916449,304.544262206045,326.869374892025,313.389738569812,312.211552165393,316.235948053084,314.380965821684,383.394680234921,368.069931479803,390.285447162234,435.514697620091,465.733084278106,460.847507926311,259.222952884084,259.875305925863,279.493801850714,314.790760181287,277.15495192112,294.798518824339,324.739466582412,337.714083827726,228.586749532222,408.115748225867,504.154112426357,435.579987748294,310.256545974176,319.098805997761,297.496421159076,398.004371057146,400.338153148495,410.693621969748,316.22947187589,324.217633111373,306.068352469878
,73.5,377.279212100722,372.07310814697,473.670972451826,372.316047999739,373.860408242718,374.678917106422,322.95545053513,320.779426026377,306.332457383124,329.665974237555,335.614081417565,267.586528974662,376.274990965568,435.83566729482,458.26337122503,365.359373452241,196.820631156586,372.012899567452,395.311547923659,347.467157355679,358.31962610734,404.473330029464,406.977854300231,386.868183222876,413.732402564094,464.289088564875,458.750027249566,344.805842748745,337.598546800678,229.484572183747,399.460755759888,430.024869681952,431.756217132163,302.948678044008,296.249547143009,247.753933522265,456.181154565792,464.92597348124,465.261129900371,287.636658137604,297.134600840616,295.677723751548,446.268097180626,446.488267602174,442.933633565776,292.560699532238,275.48100098726,281.676345191765,447.390398936356,464.772887830776,471.888296623246,304.103435397782,317.249165571304,317.735990304236,292.133624464957,291.1603522204,296.918540698839,283.936938898036,291.787037186313,285.67960429488,455.855064212039,487.204000012979,481.483554359744,322.631418498732,346.865453355484,333.234838289068,337.327794685428,340.804374106676,337.420622106589,403.861534829554,385.727092236726,407.37272866494,451.612892143609,475.006084025468,475.310684908236,283.637959686801,286.573072615322,305.288292402307,334.516899433316,299.761616319823,315.168869556382,348.448008453488,364.230598837798,230.281516810341,423.891131943765,511.456264826155,450.649703496572,328.804311257663,346.305155492804,321.45719309322,415.765012984968,421.449668611269,425.330538848596,336.620175738582,345.926004391167,324.7465772234
,74,383.147291769383,377.318937365435,480.045465161999,385.469246911769,382.713830116061,386.185948289469,336.565398655406,329.810329888473,321.473450524935,351.509859517524,360.809668223897,279.17014449753,384.17479314122,443.784126344011,470.353730828701,379.062113052869,222.365609402892,382.470413586291,410.190272888603,360.096769946082,375.381390954729,425.282293973394,423.089166012629,394.133506195571,425.224049248568,473.840138814161,462.500206579008,366.22670014629,357.891443498943,230.063033333306,407.648518141089,441.611431070535,443.376937688065,319.306710102796,316.077679927025,259.419147861277,463.40401545139,474.079471843546,473.38652427333,306.405091425038,312.773514413738,310.225530599167,457.540002715009,456.955192392981,452.161653309224,301.271886251287,292.248476171322,293.618712737346,451.865315177164,470.666342114775,480.371566499708,320.993343942865,332.92862874872,332.373459085244,309.875779203457,309.733619656254,316.203592851359,299.553246625619,305.60384191345,297.162987019859,461.390494237244,494.595287475169,489.820412776542,333.085365706238,360.659864433903,346.664702225824,357.444465895327,357.479336579645,356.910095109343,419.121291661055,396.515112763522,420.122333361466,461.567622948965,481.587469647712,483.688471159947,302.838949217567,306.882863733499,325.470099862065,348.574823891675,315.934760761921,327.658121616277,368.52303605564,385.314660617739,222.515944126751,433.294783083874,514.719868383599,459.951514168808,341.707849409296,362.348256142124,339.077113923615,428.977767852686,434.999813600005,435.45826609857,350.370482591448,357.962162736692,343.03203186677
,74.5,386.536778271963,366.302468496923,483.839564558177,394.590053233043,390.54633322447,394.529277401081,342.942628793976,335.868255692852,332.21912037253,366.744690397314,374.392607191502,288.609262359723,387.54811585555,448.787326259949,479.421233705827,389.190328871065,271.948626203108,388.399378059238,418.479263576031,350.765130728026,387.211595040732,438.38040666852,430.293964051164,401.624432514265,433.122090320835,480.48838925102,466.674488620356,383.682715342449,376.93031274653,227.93709172547,398.820632234047,447.702327224266,453.258188662786,333.510266185448,334.579401875361,268.035323945283,468.22238151238,478.330113461545,477.065537059485,323.929677186126,326.640952421794,326.163942843912,462.134559908471,464.325517802924,458.278072503997,312.355884286706,306.46519441251,300.598731854973,455.785639427036,474.316511637643,483.285117871073,333.268171436371,344.256252083791,344.085805284747,326.19040477285,323.794207339978,333.016006694259,313.822794294101,321.390789635613,308.283588103033,464.189079067251,496.978335403237,490.915340476862,341.362735778155,373.280064507876,357.011991801282,372.429505021154,369.860206805466,370.58357144124,429.894726084961,407.694774803423,428.274555206929,468.337408649619,486.070799622808,487.784110986243,317.720434044935,322.091350829968,341.728064210197,361.84932027809,331.051530301784,338.986365598703,383.242059292989,398.40119026852,242.49481379405,440.835450836308,516.335528999778,465.780414926739,351.496133725581,376.696406749365,350.696159785811,440.933714819527,443.399805277616,439.86638152521,363.078248425358,369.079884857003,355.17170986983
,75,390.24981742591,344.173706377081,485.039871936777,404.124605982741,401.736243456792,400.513078823234,352.062891361435,339.973247148673,337.830722303923,382.200652821984,387.947675301597,301.321295408406,391.564904908097,453.659599715416,482.400435114053,396.814859912987,318.986183286315,392.770979661535,423.554506161468,327.876751974541,395.428206773212,445.275910223831,436.464688434439,409.653092849469,437.319848095254,484.239520446957,467.865476214095,396.855548000808,391.433549411044,258.143814421324,378.970714540791,454.259905746842,458.036964048166,347.013103360301,345.676852612172,260.031488489908,468.395242849293,478.109885171812,477.88985202798,336.870964987484,338.353587697909,338.263340469044,462.549928064415,465.332455302073,461.200451941083,324.444440867414,317.372480295495,309.155729111093,456.969105010883,477.165166348268,482.178358153981,343.579592214888,354.180137316051,354.104311924311,339.827043275933,334.508071481858,346.363360640717,327.476810566271,335.187818434988,320.814366316777,463.740897246503,497.950089598553,489.314849565391,353.038375475391,386.029796487846,367.962694648798,383.460472388285,378.950895380699,378.34723274218,435.964387199573,411.278478744011,432.750236105261,471.286580013617,487.762688331105,490.004559265512,327.828565305429,332.679895230285,352.528934518366,371.469319728124,342.914367329893,348.942566008597,392.379859898435,408.621893705319,292.8824463935,443.289635877641,516.472005943653,470.884468814625,360.327609568023,392.573145672174,358.522988362447,446.988060581692,450.114167055079,443.29812240742,376.38669650635,381.129255872461,359.463644474838
,75.5,391.104509765853,329.262740323259,484.202966536876,408.016969546597,406.018325873491,404.041277084841,358.961006906479,346.822420516807,342.901205132162,394.655798820673,402.174742047309,312.901123730538,393.558212814959,457.416422308854,479.913534059822,401.395035542461,355.6756954258,397.627132839102,426.911020314806,308.382157613391,400.894911742092,450.014833264671,441.527634705757,416.447157226986,435.500330644954,482.496656521947,464.048476747404,406.049906185709,400.638039175713,310.525236201006,360.067754175571,458.355644057841,458.982732824855,358.576718198752,357.400335763223,242.565964872856,464.708270596541,476.334606054898,478.417611615218,345.732662503658,347.443727444223,350.176451404765,463.062060559882,468.830781405604,462.731439444819,331.749046881409,329.083301088313,320.005127654549,456.180890963666,477.607431614295,481.833228496164,353.02290718286,361.341870880197,366.172578184376,351.346208638447,345.857036635403,356.036435001125,339.189400270433,344.003059204922,332.841985241887,461.990764806388,495.125481865465,486.731507388801,366.135233031878,395.711824386533,376.868187523556,392.35563776382,386.532337537643,385.657623014624,442.307817731602,413.249649072166,437.03668117541,469.636872440709,488.278872698754,489.095386037221,336.885183187665,341.75832346115,360.736127522141,382.328771390486,350.819234840853,357.036890988091,401.105466983667,416.459307084981,335.373577614362,443.224530813483,516.7990041517,472.820319905155,367.891667281186,402.457208691657,365.089138244208,451.267805114284,454.455200361934,447.930590049176,385.603003818026,390.848697046809,363.310756354005
,76,391.803688388234,317.705558759009,482.985964874323,409.441314375258,408.925624773178,409.468074553081,361.259319093307,357.005686733498,350.006769319051,401.424496498169,410.539982395673,317.918448439727,391.539337817058,459.271526601867,476.102451249802,408.268553291859,386.22765457488,400.807035023545,429.341587135511,287.685938376784,406.765105145946,451.48769847521,442.310305588695,417.012854552626,431.145213856146,480.357173590146,464.383144008328,414.199326481346,408.284467877892,348.556472605375,341.590358843024,457.991481348192,460.543747969107,369.249679893641,368.729483686354,231.155851168285,460.644858808268,474.870854310187,478.156886545977,355.952172949958,356.665662653876,365.522927548062,463.18863673648,472.484911701458,462.914623208856,343.862520537737,343.672232821238,328.181659768178,453.982699331354,474.033719547558,480.852087901844,360.899589115622,368.054854547509,378.362217465542,363.337343589631,357.217217213491,366.593904841415,350.091303297674,354.197858028821,344.410444814155,459.977745390805,490.821688961825,484.523307410771,374.48819847637,402.544293646245,382.68269349461,399.333756121302,395.623934133947,392.052358095673,447.498014591511,419.653824167876,440.289862338903,465.204332903354,487.415069402149,485.287213637306,346.215297347874,350.773700251167,369.421135767367,395.885129007454,360.367999682164,366.340210166255,408.27874965479,419.79034053326,371.571114105106,444.354707974599,516.002168793976,470.212422004827,375.93215880451,409.867754017279,372.580234917799,459.281437996318,457.679170321335,451.409759834834,393.022273843344,399.92973433435,368.538684684983
,76.5,394.360487676423,308.706489570443,481.944836838794,414.552414344828,416.823288641382,417.261448927034,363.476788410336,366.080554346641,356.217306291953,403.251134891054,417.729530522357,321.958255252974,388.807499426992,458.634263456437,471.08009181668,417.140168974287,407.005422867489,407.028907662147,434.193350259454,271.026514414652,409.178289271941,449.57856739306,440.803049878169,416.676924869044,427.622063479973,479.947503197283,465.900078460651,421.421169277814,414.995643178097,383.374158357274,323.310940536918,458.411693079874,459.040541877692,378.897879338391,375.242315973662,221.006316930735,456.905062318336,472.543999688721,474.142185654894,366.149950579183,368.000848747284,377.498031615094,461.925430406713,470.317129666294,462.985817011959,360.996348703129,356.307520093426,339.604304832147,451.401500327504,470.398898127034,478.075770546653,367.259014923838,375.61819783331,385.806245374549,372.33902925522,366.721984486666,377.905355894413,364.005350745929,365.093844755133,358.742368193051,458.117961194288,487.490367059149,481.917893072302,379.229416345482,410.233530500738,389.464162445989,407.727537767145,404.786975016288,397.878791076397,449.739999855987,423.248847657489,443.164522454732,462.103752001152,484.332417449221,480.788224233202,353.861389430157,358.441142076542,376.5624259749,409.692990923919,369.851130678143,377.283525619954,412.287938201749,424.173282878226,407.704631226051,442.759449107135,513.693811667581,466.725919652071,387.715980144798,420.935099451871,379.498543453863,463.553494542619,462.383391345949,452.821611324764,401.244637482963,410.037457326895,368.504833138232
,77,394.616490362223,326.10343129871,479.77938267614,418.580457090419,420.922418663499,420.942613983977,367.618505219585,376.267437417326,360.63814755438,405.737820004567,425.545087406661,325.46814042007,384.942780056751,457.47938061679,464.95879796152,422.408202441714,411.417577971014,414.551903023431,439.155135857363,289.833805025593,407.191731828403,449.195501905267,441.30960701208,416.357523823134,423.538400572908,476.543811494903,462.716251625845,426.97067701992,419.683898215337,415.945028435934,334.013140280081,458.256410662477,455.826719589026,387.314220862504,380.645481982712,210.591811954867,452.474557357872,468.084744766709,469.903203254176,371.943515897452,376.452471001459,383.47490698287,461.983472046162,464.414214122483,461.168511324137,370.793989011537,366.151934709286,353.26867552821,447.085429607004,468.885762080327,478.13069226846,372.262207152753,383.135056235545,392.181970282398,377.791112493237,377.150933664185,388.278701036241,376.773043775137,372.379238609069,366.96482632655,455.370526136257,484.086968076027,479.227877277903,383.513738824091,419.055164368793,396.007105132891,416.399489093157,409.515223429268,404.186790290638,451.144499888224,423.871361304848,446.720264466072,458.821983469526,479.559400569764,476.229745594894,360.235517526699,365.754308550268,381.283540698584,421.019599864929,379.219687829004,387.270939893572,414.117533890707,426.660598451445,426.102118494405,438.84296927177,509.418175896985,464.792800771258,396.577343827553,427.825420449094,384.859202088736,461.490229501216,466.207704489324,455.653227667491,408.217327679224,416.261760625861,367.247092178879
,77.5,394.612030838155,363.247637166698,475.917638573633,416.805938589293,419.438330015194,422.109595199442,372.819873759142,386.891369007001,368.188234044524,409.054671136149,426.435437575379,324.178361413096,379.27997160312,455.730602156699,459.964339203333,427.85136073732,411.726164916653,420.332811693074,443.970149854795,333.61044869412,407.923501053591,451.81634071968,438.757122174082,412.512048325574,419.494337601357,471.785647082943,457.748773813231,431.61397181226,423.695385299071,429.149184171362,371.098617360195,454.796325531086,454.045797704596,392.452848819629,387.782969054643,229.904143912465,448.283929555616,463.878629830663,465.61669167511,378.23589217091,380.955911638444,389.846963549382,464.38044440013,459.963616572941,456.742514888299,378.381806575289,374.846268936987,365.078284619971,442.801091520028,465.2854003221,477.583809828171,377.047320731475,390.119307440165,397.591042474575,384.179844468584,386.470183323379,395.891387033476,385.668356740112,381.128402240818,372.258122607047,452.393053629244,480.10922634082,476.260103426067,385.71601409261,425.698840815889,399.847748839449,421.969892578481,410.194876731463,409.567954721053,451.841564114266,425.82126052043,449.699121372823,451.969092632833,473.603958726133,472.273221511726,367.279290777142,372.588522232126,386.335282332237,430.857260798266,386.740570188858,396.594104851071,412.463308276363,425.364844795039,426.512087951701,434.343376255045,504.068954986496,460.330951458335,401.340477539531,430.989875567431,390.35062814212,462.12717907878,467.396178345964,457.789754625557,410.649414555014,419.735952705327,369.520716678666
,78,398.251528801685,391.346119916192,473.143538202388,419.620942363973,423.327037731383,423.824076250586,379.165978477869,393.694175009526,374.124044710671,410.483278286943,422.658603515707,321.825367867953,374.083790454814,452.135347800516,456.191103811108,434.834693915563,416.124785777889,424.272158591465,448.062890845646,368.695526754607,408.563841077708,449.492797132543,434.729189720488,410.836038073705,417.323701856055,468.07975620217,454.733168701809,435.972460390817,428.328405526493,427.960452729474,403.261417879791,451.056456486232,452.758865779944,397.380420876455,393.14426332192,272.821351491368,447.474584511556,459.840517402952,458.928538231364,387.237679317557,384.537352375875,395.171875623884,468.731871482225,454.652746464779,455.129195296463,389.258579212061,382.087197288516,377.421904361491,438.60325753501,459.572978231282,472.711585214628,380.569781585026,397.487132558115,400.363785953379,389.005407526568,391.63175955071,401.559734949312,395.294064835127,391.27862911335,381.897542644171,448.204896357605,476.692742251041,471.386808238652,385.765311890746,433.281786519163,404.342225084714,427.804061984362,410.662481772346,412.375045660694,450.356388082526,425.377926325103,451.275440741364,446.432821083725,468.249125823053,468.702895344722,371.925657735808,377.107829659215,392.819939076988,437.59087852924,393.757416010345,406.319708373613,410.30779303402,426.100353050849,426.734200633362,429.260819850877,498.379892145562,454.451046318713,407.047023565301,437.260240835416,395.062700255268,461.549791249906,468.21563611116,455.989590158946,412.537554157952,423.851221990324,371.596340598289
,78.5,398.475043424936,414.0711705995,470.933157506398,424.671198368708,427.163116333275,425.470425180464,385.491837256929,399.400088227583,375.514170376116,409.714761040876,420.093043468127,321.760483947658,368.627885672791,447.366044954242,451.891297881932,436.073219940121,421.287744143857,427.971289529046,450.948671781101,402.508201898695,405.480287088113,445.540972075999,433.420520155832,413.219706666801,415.365518254825,463.701283038814,448.946271579472,438.262108019267,431.465002925692,432.271105105386,431.787089187323,448.577223831386,452.052253288682,401.961197161766,398.07848898654,307.655387535937,448.081710649866,455.764340410393,452.763693234845,391.8513263103,389.555139586612,396.127191468874,473.51562713795,449.436170571053,455.75609421218,395.015414237814,388.130049993566,389.393127526247,434.934549714806,458.055998567035,467.250028301684,384.414596260717,405.157583954512,401.812763000463,391.972819536476,398.467499562611,407.576741776336,405.624060745559,397.157276896183,390.902433381571,442.611892565667,473.571832987915,465.74947356674,388.634636040647,440.836620639898,410.597742402969,432.483884654358,410.454206451988,414.876762820219,449.029028554989,423.131184428627,454.086219138025,444.289394593958,462.4122312255,465.422777777706,373.782048554698,379.869432318537,397.403964539065,441.949213882173,400.828076574394,414.312492639108,409.851181764216,427.725164557609,426.039202516132,422.78391611159,492.962632776633,450.652272320681,411.801858012384,445.421975502577,397.068271691228,456.183419740997,468.641599540264,454.276074921405,415.332586842047,427.633501862458,354.473297399506
,79,396.032013473613,434.052618901122,466.723494225783,427.374205611039,425.995660291356,426.234979431988,393.066359742744,406.34141415291,379.575212393451,413.351713213782,417.259928582055,322.5336191277,362.725712879594,444.615310231555,447.637962150225,436.530674758093,423.470213105878,428.279652625872,453.422579614939,433.252542172002,405.174209998707,447.166739510744,433.156785324847,413.735028024844,411.446222883954,459.163609616433,441.468307350194,438.840827618224,434.059364939417,436.008260409427,460.435002854354,447.963748139953,454.685107763214,406.63542723752,401.146791027357,339.329216909618,447.215647175142,451.736102659549,448.73079932888,393.573087361855,394.3595654689,398.186550390181,478.442710014828,446.768145148022,453.057773693439,397.336831932048,395.171780075891,398.215109907211,431.551094571559,456.678009832008,462.625758083817,389.688945829757,412.723064168174,405.496146845123,395.999021259116,408.625353325484,414.862365254117,412.373051019427,402.911229593075,394.246677728965,437.598594883377,470.61954621447,460.811741223978,395.099760526968,445.08460484275,415.678615309531,434.734111725637,409.82216800349,417.61030008749,448.301033300889,422.967444546493,457.085062711997,440.783903401988,456.47249328503,461.989541224154,376.358854621786,382.979709225363,401.272197316172,445.995664143589,406.250958513779,420.06554872656,408.450068574951,425.454986201737,424.852318343197,419.585766795697,487.478786511911,447.093083271314,415.052952184372,450.827123956243,397.905062047147,451.880443092546,469.699290994411,453.602190059789,416.968948390446,429.440805318202,324.662821821004
,79.5,395.531317493389,439.910921231503,463.667584897442,431.642199532812,426.534030019432,427.684362307834,400.122057678438,409.51287471151,387.261910973219,418.415520989949,416.799446617869,325.395938971816,358.118390492679,441.737529462664,443.500641460644,442.423146440622,426.220427311863,427.164839079587,456.36815359223,446.465399093881,408.057330144096,446.610685368588,432.573166140137,412.215405844426,408.523542501352,455.930276941257,437.09117908787,440.177185971555,435.977315870631,437.433326151262,475.347025036918,448.581290774021,455.245215639264,411.60071451631,403.407793042848,370.541207165286,444.167620465152,449.778982368141,444.5330175833,398.411542437917,400.84743228248,404.112435724247,482.745220654002,448.248862134817,450.344095741377,403.397607750563,405.16859012641,404.307976982309,427.650058710514,451.596976140619,458.092281464028,395.17206702767,419.941457367621,409.709821733443,402.482394509943,416.060105391611,420.89952239939,419.841197404053,411.677434443145,401.942481440195,433.29877076506,468.921361254622,457.389422164784,400.992015409909,449.383182819424,420.237413176364,439.800160758658,412.301538104369,419.862266973949,446.151408700117,421.966762763952,457.207308553545,436.043459543799,454.058222025433,458.329852234679,379.719932141051,386.069490669103,406.232384683806,451.81290125502,410.281342357128,426.066783367193,407.227524700724,424.984180721678,423.648264779611,417.957332893841,483.336532421833,441.677010422774,418.861616839204,457.476545605653,403.525814192388,451.104882688238,471.597958705439,452.06161847019,418.386347684236,431.162240752758,301.689390419061
,80,393.585508080592,436.234922958894,463.103110431039,437.497040682284,429.512681578116,432.149289724694,405.849531844226,412.915128546482,393.024237512257,421.476108384114,421.509392658752,327.215592254433,353.143043850417,438.212598473638,439.188557043695,447.031764200884,432.77364713239,428.110954228551,458.995262292638,448.973660937987,411.309138745096,441.928740128571,436.100038441118,411.903619186356,406.424384853156,453.280810974849,433.511933074421,440.672264883094,436.353006897641,437.289066715348,473.51019830731,451.623334073394,455.098889239143,417.587282377458,408.135350432148,387.695547856047,440.105345713289,447.876072447993,441.07610469572,403.795520283169,408.779307417657,411.382101082377,486.158464389902,449.350247727049,452.139644782315,410.826862181782,412.451886457021,408.398743719689,424.621187120476,447.793799074751,453.424460393541,400.500605243912,426.788432221026,415.844588711783,409.316232356805,424.052380971134,430.119608335131,429.646891794138,418.892914918401,412.28066232125,429.185408387346,465.934437971367,455.36189424048,407.97367111572,456.872022589922,424.965999863834,446.919910367295,418.750822912294,423.067976598707,445.289736766074,420.691331699784,458.347908011202,436.319631641709,453.275023848156,454.480274673722,384.249594146796,390.354688387175,411.108769903761,461.074401251795,418.157195903263,433.280678209601,411.218881751533,427.941778880267,423.589561057151,415.030139067434,480.901840892436,438.391375533607,424.009849009906,467.36783368971,410.346232691326,450.499885881501,474.238421773469,451.011874493476,422.134945137607,433.554897282406,280.948164718638
,80.5,389.563475467404,436.464080937792,459.565023074838,441.65671070945,430.596978588455,435.472128314898,412.887526442935,421.701451239357,400.17349812908,425.567524573499,430.204749608973,326.475170910344,346.744772249647,436.122925086775,435.569531233697,450.228192976408,437.902004724112,430.362568777224,461.793146851595,454.106901683142,416.89970848744,444.19251686681,441.762823521198,409.66961177932,404.800712712549,451.399617593722,429.80188683032,440.643412684241,436.300621105174,436.851762614724,471.775178071063,456.539662595656,457.969159326969,424.930594083915,413.259178444754,391.272026585068,435.552550631265,446.311455954467,438.433416696214,407.443827267655,417.963880923604,418.753408344174,491.382929313819,450.304440307909,454.51175070365,415.637455541619,417.140799808359,411.420092269648,422.48349479809,444.85396666551,450.517600569377,406.033037802878,435.171283437119,422.785520968246,417.562563039056,436.066270244268,444.215095372747,438.39714324084,425.680268107348,418.244908937175,427.329563714677,462.934147104806,452.861532860321,417.49662660717,463.879997665793,430.644530668581,451.890554723073,425.387895274811,427.04972481597,445.570276214472,421.999890340649,461.07621607196,437.652073177796,449.290654852635,450.105593524285,390.17690653171,396.23228536976,416.803202259367,470.984532382422,426.441589937934,440.235329704627,413.079887315429,428.658731812985,424.279119200664,413.002519891516,477.946252278544,436.509405389021,431.193428950139,474.802186624241,416.066410893553,454.419811707277,477.244186655379,454.428122964474,427.142808863112,434.135321865076,260.228408157312
,81,386.330639769993,435.516516675878,453.795068559853,442.032891775759,427.152205042572,433.928074151405,419.792248084474,429.635706365556,411.938857294918,432.695562421192,439.592835840005,328.413129384167,330.159343998398,435.225615942907,432.755478427388,456.365250963092,442.501869455016,431.980383916148,469.447428721686,461.164772662933,424.928297251992,452.211653614009,446.159358824842,410.602590485512,402.839241100368,449.477729955312,427.245431843424,442.337261734212,436.5372052518,435.7931299141,472.218895616867,460.686833591823,461.829712103956,434.534087013923,420.557585441695,397.524935330664,430.772520256639,443.335596392125,435.034311056477,414.042656948255,427.760155104412,427.6525322576,500.142102224524,454.517584934798,455.767887724212,422.228801423076,423.18517487645,416.39521675119,419.26910342456,439.49350116223,450.431637016364,410.894333659356,443.102831701684,429.274471131015,427.409926687269,445.415046863884,456.096123667088,446.155220151164,436.390713075549,424.031312550521,425.181215104919,460.656886721182,448.934592791168,426.700872765584,473.270413619919,436.992640140295,458.748801910994,429.927527351947,431.518702677873,445.558189807677,423.117574751484,462.048097881335,435.214969200302,446.626626058383,446.234331457282,397.999868733338,403.39086534964,424.492315426646,481.423051385863,434.668045488495,448.629243096807,410.887285897678,428.710237705765,425.690914838159,412.419980550488,474.639213836031,433.688843532989,439.499267772105,480.735103117708,423.658942392859,462.037742865937,483.006905167525,461.55601806606,430.338824121384,433.503757535902,275.580659432701
,81.5,382.898685084099,433.027711751286,450.44722721508,437.87415335735,424.809153729484,430.689384566576,427.261640935798,434.523017165465,422.162676713268,438.214790612229,450.447494776961,331.507556391448,306.660600735508,432.552528820757,428.786470111556,461.391791055019,445.204793640827,433.648943440086,483.07503306276,475.49267090865,436.579957624939,462.510002474784,454.569040171883,416.704898598908,400.349153485413,445.731564433165,425.071545058477,442.460052210172,435.825402260922,433.271537093576,476.828893759733,464.946869473931,466.934512924976,446.026500977769,432.233593062216,405.902758381,426.931393172653,438.826588800969,432.135524928801,424.242292716529,436.50145023726,437.374185957754,519.238045269635,463.33807373663,464.556289786665,430.198554115073,427.823542447049,420.072647285244,415.075432150948,434.00606741436,448.329891265782,414.579171818127,448.727560022565,434.661151275108,437.605998637705,452.312421402853,465.028879393249,454.792040542469,446.634506707279,433.093812721836,421.112999898518,456.893684813207,445.718006162593,433.428528775751,485.665344091038,443.04155588081,465.041194143275,432.286235674609,435.529089043436,447.013295929801,424.891793401641,465.115337507245,432.862471388471,444.636412697369,443.277784015516,407.026097470175,411.987428310539,432.415556133567,494.215107552658,447.085024845627,459.378440936048,410.939309321474,432.070922770421,427.094452816134,409.330113999849,472.041584144377,431.022570848994,444.006739607188,486.143633440921,431.262241892806,475.860883953525,496.839258640614,475.45537131263,432.779422638008,434.585320454058,323.627608980094
,82,377.781428796033,429.541561148503,445.215336520911,431.687176319854,422.183451417764,428.491751010761,435.410833758455,441.399846747014,428.880321682895,441.03231602171,461.80538017848,332.770022414327,286.301513933352,429.093782837805,425.504600600502,463.365628368066,446.596157914656,437.019263353357,507.280971790542,499.722639622812,455.349022919754,484.800814616129,474.280365197025,429.907307573505,396.292582800753,441.395341559162,419.918825690159,440.985228969431,435.163096189842,433.318804058811,490.077824389367,476.082211431646,483.606931403883,456.637076587823,443.727598542575,417.180383537793,425.469068866027,433.912004502171,429.465237675246,435.690986320652,445.940210072843,447.268515199978,570.13973222105,481.241429479086,485.825320454628,437.167658536466,429.560310459195,426.205622481215,411.508221974992,430.398260013684,443.332014793881,417.691220430562,454.718537402311,439.10737369942,446.277101876743,461.880547047045,477.496587845401,464.532979824439,452.790665151208,443.531459272561,418.301716074509,451.607666377347,441.424913606081,439.935445473678,495.178672913598,449.464090715336,466.972596638572,433.855148015363,438.738159961411,451.968943710003,430.681390266684,472.057905728542,431.532083690455,439.738894375821,439.983765403745,414.385068148989,420.290631888943,440.007559600572,505.739119477678,459.257671120662,469.332248611483,412.052179304142,435.808313363162,427.992114087212,405.660026443438,468.666187654893,428.730984955132,448.438156633778,491.685150756942,434.033830660918,505.29310728265,527.793805444256,501.992125244255,435.506392985288,437.726421241487,365.310394025038
,82.5,371.16417900779,423.030593868943,439.430244877266,427.102343437446,417.127014313823,424.593395079723,441.04323343942,448.102908361966,433.366765783651,447.21478491834,470.62463721903,337.857239047971,268.716790420722,425.482414677722,423.28964854595,465.911675819029,446.366939720315,441.032925905887,540.486037314335,530.46737893514,477.385569949388,517.695530875983,499.860306334967,447.47643603437,391.817359187987,437.455951835856,414.198320304691,442.491560004127,435.95955092542,435.536591329752,517.040337001344,497.271182262505,512.856439905222,465.493992131362,451.901129872116,426.58370290628,426.356612381909,430.157850054599,425.534819465765,446.822935299267,458.110047995648,456.552487473105,667.801227074566,510.827510697994,514.846498506355,441.635311207526,434.345184463622,435.719441732092,407.442603747149,427.261279842687,439.978378504593,420.380260096832,460.457311532856,441.802962133209,454.323871900148,471.388850806486,488.372116248123,473.310201860489,458.940610230247,451.684244867115,415.872090911744,448.48329521095,436.082222028603,444.944323045105,500.641674827274,454.647756220307,469.317629961341,433.677230301516,441.021462113042,456.716486507153,437.302410026427,478.364183844683,429.277216832339,434.938462039353,435.936279524718,420.704733013761,428.806122938674,448.067398795411,513.967091502168,467.135673332028,476.425657964457,411.405648378478,437.207339397242,428.136764864267,404.939808313934,464.095767881962,425.770257769881,454.692281044615,497.084272709097,434.329092351721,541.678942867542,570.769962051982,534.357583239545,438.77614903995,441.248335239089,406.411694672478
,83,363.208607441372,414.370353414659,436.619164168801,421.216729660928,412.483499881557,421.040705936606,444.153889223914,449.624002977838,437.414300501046,454.13065523821,478.050881254063,344.320952542226,253.688735930054,420.920889516087,418.56619632023,467.037019071297,444.70660970869,443.716838801617,575.532985537019,562.09194650933,496.620436751912,551.168622623865,523.862486313852,466.926073417628,387.081146532602,430.987896688654,408.670519726497,446.117895202591,437.177480326087,437.998288095308,556.17318005118,526.171733992138,546.610424658334,473.381879575642,460.141829522901,433.600278438522,425.794128468901,426.779666000507,421.596496070029,458.769207621483,470.578587053029,465.079863397979,810.434707928034,548.118804513129,548.308306557627,446.730194122116,440.649210582774,443.484578396087,403.870033060049,425.773554700303,437.807738246312,423.091271775325,463.682789208963,444.011965052295,462.958958948542,479.367675013014,496.082623082215,480.472935854446,465.493601381594,459.801350735382,412.909978937344,446.675326156587,433.090082779344,447.225179015487,505.534134941172,457.475588274737,472.403196378084,433.286165952516,445.321247891639,462.242585159365,440.985852619849,484.966713873706,426.972856263289,433.174814416529,433.645327307853,428.658438472,437.782170185793,454.77422250936,521.255950779198,475.168885711872,482.847645550673,413.680010463616,439.897501800242,430.071627864028,404.804544651723,462.170326387955,423.701321721743,457.80745728974,501.542280549186,435.561166767357,575.255549598977,614.530384331617,563.440930380593,442.824868228078,447.418862977192,449.572247586033
,83.5,355.407590730025,409.149949240895,433.443034994082,416.216084374791,412.251690598645,421.721295155714,449.429007274141,452.075159346523,441.13206324938,458.146399332144,482.738703954499,346.853886222721,262.238677931774,416.213566355925,414.018454807897,468.637078524337,444.089751281896,445.539826284761,607.256909720699,591.907775967794,514.201747921905,582.966483783649,550.129536330564,483.080423716237,383.947664753403,424.829461459614,403.637382456967,448.714326244008,439.240539318169,442.200759503798,599.89564798238,558.368979935616,582.318605906548,478.19227225141,464.955746264888,442.47240592471,425.875249317798,425.183598503038,418.45245524018,470.966502353604,480.556048351363,473.534872618755,989.34066509211,587.543744617714,584.347223663678,451.108193855752,444.349699071431,447.824051104439,402.742272597774,425.114955460139,433.852463815936,426.482944624092,466.174606316645,447.615178627391,471.530624313565,490.002234829532,507.285982707605,488.25364918727,470.155891402535,468.903057109981,413.893426496353,445.18136050334,433.483650184187,450.099200333834,510.151565477222,461.426978238276,474.396135787621,435.409042581136,451.218073695894,467.699371701309,444.251455905209,492.902822884895,427.392271880791,433.00181758623,433.692817077581,435.717281431484,445.138746097728,459.846787470444,527.80220980925,482.556753963916,489.116204408974,419.671063869706,445.300976046001,432.964510762278,405.832325436745,464.383283492501,424.577339819095,459.0874894808,506.733830961402,436.65318571223,607.614076168592,654.063230118828,588.055621324779,449.070138878378,456.107825822417,474.181481993813
,84,348.599572181189,407.97463386657,430.94538149063,417.145242074566,412.38325725321,423.944058707438,459.780113939051,462.360195095989,449.37923925194,462.748831515376,483.724759160247,345.51998256384,289.213007666922,413.837129371457,413.879890697154,470.988476013598,446.993235004664,448.681269091565,628.898100176428,612.740283319587,526.540356663944,607.432343349242,573.929051150943,489.807514098494,382.679860936526,423.52245673994,402.035221103195,456.166415810364,444.439434343845,450.825976441473,637.079446186435,588.60033416304,614.69408114773,478.973913477825,467.034071515395,452.027579256863,427.914208924379,427.363112658487,416.614714100816,479.01606437505,491.808752324308,481.648824015905,1173.04377802979,619.398006163089,609.26546508565,453.919032349992,450.669739243949,456.086030786975,404.889142992345,425.444045599172,434.227231466146,430.266164577353,470.813802932796,451.741498018875,479.981692607883,501.056448280563,521.528461329662,499.105014249627,478.866561588834,479.441824180184,418.644721984493,447.474451773,436.31590617594,457.542673979105,517.096953851707,469.081155934371,478.158767442541,440.26392023642,457.177459936952,469.44035106396,446.375749306056,495.546423388601,431.29358829458,435.625437559999,436.089356508602,440.703657082416,450.774015110633,464.540878051704,533.39091762159,486.232900769561,494.03179360222,425.698732293798,449.651111720028,436.855156804983,409.23754596049,470.658834617991,428.452152644837,467.42119273561,516.895615232975,439.567729196094,624.847888405825,678.064852517954,597.712109968559,456.177153278571,464.619988862441,483.496178526539
,84.5,325.518582651526,408.907805878222,430.752210777475,421.299567899254,414.675254792883,426.207122345186,474.200740018653,479.649418079828,464.523934846651,469.117022178861,484.065885764961,337.774041751099,312.942105363136,415.91478751004,415.633113359867,471.997678538522,453.397436698798,451.133337195583,631.802069499205,616.130752444326,526.195901346904,613.688899389913,580.693554235763,482.712815932858,384.201004805259,425.634512231114,406.368078927517,468.419495505592,453.70992636057,461.817654384728,659.25037024863,610.033707403999,632.930717900558,480.888239621842,470.066616937753,457.453691635314,432.418816461851,431.742809422492,417.996777012826,485.773255970085,503.459082987831,488.801297744874,1305.56452952021,630.766675010208,612.881290005228,458.841572766332,460.693918281456,463.747931621916,410.807979407716,430.112357808494,440.965665408638,435.872477755757,477.410405277862,456.8872702336,488.867335014006,511.096790760257,532.988823232626,507.752131837715,493.111299636182,488.197987356329,425.565833448246,456.595142487006,444.359537166041,466.743859435697,529.296293767694,478.476590214929,486.441843545554,448.195619075911,465.248344087791,467.793392703586,442.825698001363,494.721800711363,440.325067704765,443.010432054465,445.225457155576,448.096476813529,457.096624640766,469.818524533938,539.939851718935,491.089899349174,497.993790533819,432.47673563497,455.740459033719,443.67342425533,416.27437039467,482.42957332634,438.249947079254,478.495523481946,530.300700112662,448.21764449141,610.858487435478,669.172100713131,582.196111753813,463.791323340416,473.076615289042,496.492643794348
,85,292.655704714744,414.110466777426,433.523135008516,426.869236030258,422.796381007536,431.758821532203,491.301361373065,499.428562802498,483.166346093576,471.83111686554,485.570893260018,324.396812677075,338.894652816366,421.873278592675,419.975732482992,475.895928592658,461.56825202242,453.376577692573,621.83011754643,605.478885089954,518.258823669767,607.52853384731,574.310998202363,466.640940191913,390.547924253716,431.630839021292,415.624411589951,484.091573698627,469.890867584691,478.567300970388,665.263987649256,615.437189386986,635.509433712848,485.069463419656,474.398991502995,465.25065134365,441.515751460874,440.024692189394,425.85947302928,494.646567942101,512.755696282422,497.317025968683,1357.33770537137,620.532589351378,600.662710986134,466.34046515916,471.78298114144,470.057575829624,422.445979079189,440.014377900299,453.010341807345,443.65371624575,486.466477412139,464.913041503773,496.096421931826,519.935852617782,544.875921381989,514.425660094951,504.666164573695,496.434526030846,440.288431410889,472.317675778166,459.915323371489,477.355218063525,543.638302725547,491.144162130026,496.974589799866,459.325356916419,476.788353038734,465.743302584936,437.63193849428,495.877068836409,456.229423766121,457.578079636068,464.432752144717,456.618738091443,462.811088062493,476.235363081405,545.873430579698,498.298152563886,502.610442228267,440.667066451475,466.047368641451,453.495150837769,430.221310496918,502.151874947115,455.403275636397,488.25600171745,542.970343028637,460.923262161044,581.111333931591,636.766249854481,554.952369244728,472.482676115135,482.570031912351,508.589179430982
,85.5,271.078959677983,424.526340209203,442.019937900769,436.295728688802,433.158971496593,440.079516908685,510.283789367195,519.807523607175,501.070057361661,474.236126787642,489.073024447157,310.739682835426,369.679410006323,432.668095072192,433.285376611925,487.076083483702,474.229736433955,460.451813832108,612.472680338027,596.643430882576,515.811079121582,597.89666661936,570.298883158979,440.990972787366,402.230762386109,447.602334094912,431.804251285943,509.197536108068,498.557256257487,506.516898906804,660.141410131435,610.703596638772,630.711851475352,488.96010580754,480.274627998876,478.461004896386,456.976747877874,455.604174433698,442.370332600512,503.69734845447,522.809003501,508.639356140539,1326.76604494919,596.509825887879,577.268361753922,476.172562706317,485.463819111036,480.807870908169,442.620770713951,457.771563890765,472.716031739357,453.187874746892,498.314329956847,476.186141313773,499.674691078943,527.602960399662,555.806439876988,523.280982691061,514.728587225819,506.270332628546,465.019572721549,496.467865822552,485.332999511403,491.302663766043,560.401320708077,506.88458709197,510.081773352966,470.170421019077,487.775386702211,463.220499247717,436.525580633484,496.627515986362,483.199608295945,482.380035125442,494.447405869871,464.12886144856,468.19954533854,483.481643906768,551.282248388994,503.158314660014,508.024393321346,449.370735355651,477.380970240686,464.758045483127,453.873602533033,529.317741109629,480.96958290649,500.493241676426,557.465020152657,472.818077301612,549.13175931594,602.300225029389,529.320389929408,481.472271218378,491.995624305039,522.908292962712
,86,262.604668593864,442.220730958772,462.924240418188,452.96751281307,449.44229745918,450.782633221085,530.146428524295,540.177581318998,518.768105106524,482.792432396476,499.066676411213,297.868659397843,397.132290071027,453.192023636276,457.451129667365,502.193156414231,492.883982460198,475.42686063361,609.204284646346,596.671725535804,523.048751753724,589.72600317813,566.002258287432,415.418886173157,422.687990450648,475.251848800264,458.475715703069,554.424717822377,545.535777011878,549.390461082117,654.299141593038,609.083120759306,627.101835881292,496.602957315129,492.071682279809,492.009684840304,484.525520014975,482.357418249034,470.983199878667,517.668798875366,539.598481302627,524.134358797224,1227.8318876302,568.464909609521,550.894580569169,492.709279601871,504.7856154875,496.852439934135,473.797602633333,489.486063568927,506.514823656187,467.374045928749,515.013474643329,491.766258289874,504.071352601402,533.493523085231,562.96998914568,535.840589001762,528.885503158065,518.831249207395,500.287325171223,536.003390427735,524.105012067107,508.585837505822,580.005402387494,525.214383444344,527.259806684161,482.946067013563,497.50841564849,464.414796598237,439.327673182755,498.941769526575,526.107724836452,520.915672262985,539.826137666729,474.453848946702,477.787569207173,496.224119664779,559.157499204568,509.192764581195,514.973648465293,459.562966050058,490.352640549554,478.134034608178,490.349560186438,565.241306842077,519.923056637418,514.898281884579,572.609305444786,486.638213906352,518.047188928247,572.004791206213,509.42974162039,493.270983747463,503.538274198502,542.164009469383
,86.5,271.939712115757,471.580335623531,498.064379038652,474.985523679044,472.356332222025,469.427213034269,550.239775518191,561.785919097074,538.79260074138,502.106965947432,523.131995882435,295.602143658295,426.034401079145,485.764134072813,492.901915376263,525.126677418456,518.751878663054,499.266449024621,626.83520915091,616.722898241483,549.794160113239,594.595140127518,571.35949861833,417.508793487175,457.427445166612,515.093916924838,496.952019070942,617.090935135447,607.267071182263,607.08844886596,663.94982851574,620.01191922527,637.626115518647,515.673132243434,514.396576720977,509.813812787959,528.438788995217,524.917861453551,514.638610029936,547.331192283044,567.881656526613,554.121357553465,1115.35341081657,554.090983621052,541.032348370676,524.148538393183,537.477728695113,524.123018454399,519.062779525997,539.114061213349,556.78650682537,493.666424676753,543.109279771403,520.286628390842,512.444897088101,543.073520605082,574.010025873371,556.806441537763,549.481733518316,537.786488241647,552.662014310621,594.93964273817,580.595004956165,540.456001159369,610.878061054976,558.026772152855,552.867302348026,505.621965192768,517.174908636705,482.694222300462,454.836460322795,517.887063948825,587.627322087371,579.602147911698,607.729198207637,494.888876912236,496.505660103654,522.13627239103,576.21051321873,526.484227408116,532.340375358881,474.14710614253,509.363653541803,496.140855630658,547.435520747362,616.431053117612,577.738920279002,529.35585900308,589.292460998132,504.804923388044,515.922543704454,566.420862330519,523.610378343902,517.757797947441,526.500027428861,569.519731646141
,87,335.961563892601,517.344721853675,550.865843171582,509.29357349538,509.947870083334,507.85991609154,594.959103132745,607.41950649867,586.055008557202,553.953122389675,581.552358519745,334.285465514398,470.79530606315,532.485030009657,545.900224442189,579.350775709903,569.511353818586,552.659109346351,696.363993213633,688.934736516239,623.391505316332,636.905080621647,621.951256962659,471.336169904412,508.931718017057,573.950409249796,552.730952505252,704.720009476046,693.52101348738,691.085808703636,704.671299351565,658.715595495797,681.941916035703,569.388179232325,573.291331714732,561.001986823895,592.740857393719,589.861124290367,577.972536653745,616.428456121545,636.74885935481,626.692975079464,1066.06029343243,583.783781373969,580.097180308975,591.893351079349,606.987749565224,589.04002045364,587.401488189135,611.611274833594,629.090442155074,552.914451444163,604.115158401259,585.372353095906,546.661223645395,580.219011095013,614.048451842554,616.127359361584,603.550987356588,589.544896541958,632.934631537665,678.60417186466,663.039573928314,617.406319780642,689.986631518198,636.821182134731,608.165639194332,555.208827078613,570.543935189696,532.402297351172,505.618241139797,575.607405234521,676.781646732577,667.874787162018,704.174125712399,551.671476588195,549.549080547781,587.644305453554,636.251216113984,581.657247800769,592.739055191951,499.811234143577,540.738382305685,525.741066589933,635.153067547398,694.065075025766,660.180163811413,565.697159268159,627.823558016451,540.447576082023,607.520833533959,655.165213895582,637.688977519076,571.608844494158,583.91348594554,632.63184349376
,87.5,445.140793905958,578.936695326578,615.766877343817,574.382454304467,580.064146479296,580.540210577502,703.368652639587,719.254603883478,704.986988034031,647.088275927114,682.45197198722,419.664363660927,531.322083959137,595.74385766463,616.89650543576,700.053834973946,689.483832373482,680.527910768594,843.396933276914,843.923795482379,778.796669627643,723.406850959326,727.861054886604,582.402871671043,577.80734475811,653.7085568021,629.047677539092,839.25233775059,824.179561747417,819.257734498528,827.962070624271,797.487759074932,831.799033406643,722.731734361658,732.087883245924,697.56473493777,679.771509784605,678.328919767561,665.422379598814,761.515391982545,787.219285401502,779.197762518135,1077.59501018823,754.572120185913,765.24531637576,743.034714577865,756.080314845944,725.411199990335,680.705132035781,709.7081386024,728.60979475641,689.791772143737,739.511192780598,734.243397724992,666.973145158036,703.589017252634,742.702431263923,753.920056896132,737.836506331063,709.525298469428,738.679636724606,786.674889155196,773.44569971605,768.637577683285,853.378618487574,794.7817050331,760.672534814359,700.463209173584,724.656176988568,611.742890443015,588.68411415509,664.313766368491,793.721501953097,779.804230059353,824.8501866034,693.021179310874,684.442803942952,743.060294024708,800.243267846427,727.803467627202,751.978086543058,540.446411578925,585.513503373953,569.880043326099,745.158820534911,791.513175194998,762.603375224151,674.5000723283,739.239271445672,650.444759757602,779.94006095984,827.612770227222,835.518928192926,656.18866759052,676.416968470357,734.11100499954
,88,572.637377539556,667.121958615725,704.869682678972,696.446430493989,707.561201255784,711.846151413519,905.330208304598,929.021663276281,917.829991158911,779.552597831098,820.263751436323,549.428587928218,630.84438088949,693.671621030337,720.884486392569,955.780625432596,946.101071086316,937.443029479429,1108.79153443907,1120.9578142245,1038.19587071206,878.48698305968,899.767693382477,777.92023795776,690.202974677583,773.034669466367,748.27527267656,1031.51620465134,1008.89751802928,1001.57625918828,1057.86754362796,1047.1519107436,1084.7051355955,981.091292201183,998.893029805032,938.903065796101,811.674050175388,810.240247696699,798.973860756707,998.135693052414,1031.03832583629,1023.6721424554,1120.98919803751,1079.1944302992,1093.19974029347,1000.27465572805,1018.51451656775,967.14483675885,814.289549275116,849.611857018542,876.395182452539,947.661271549053,1005.70488357875,1012.27744183343,896.690630011972,940.781417708277,990.317991625203,994.101035455468,980.740131644235,927.504436715678,882.821766221448,929.190994799591,926.208524857134,1007.24049675916,1118.8350021595,1045.24064617621,1039.95536979857,963.863635750054,994.841279960719,724.640959800495,701.447263617273,784.078051224533,941.946275573454,915.530058139602,971.311488913601,926.871279042966,911.756588689177,995.371574013066,1089.39862325293,986.762871372757,1019.22899740189,609.46631430459,659.083949718629,639.10796506927,874.029419577115,905.364682564073,884.989402199809,895.032389621283,973.287924415512,868.116913013584,980.479887872593,1024.82808169373,1059.10813367753,783.967222341186,811.747356926625,873.50262768985
,88.5,773.280723779515,825.947402405794,870.796611205685,886.276178014794,905.151302154806,919.785982805402,1188.68164191681,1221.64574741528,1207.50471561882,990.122507632044,1038.43283369441,761.727259910897,837.25132737662,881.526126462538,918.063129495535,1324.7127213253,1311.56480810546,1296.36412435426,1464.61464241139,1480.44295474199,1360.93077187322,1141.96910848167,1176.99210796269,1085.23043387523,904.536667406081,992.308767013762,971.465086054845,1259.94131989708,1236.69984629088,1230.52331316278,1320.36232704185,1318.70106022359,1351.41239205041,1312.60463340208,1346.62660181578,1266.02070630576,1033.40585903198,1037.43977574661,1031.66211727496,1313.81350880773,1357.67064811911,1353.15411904765,1181.8114397261,1443.41378832164,1449.42110563044,1361.42803293434,1393.81634938154,1322.45627198143,1032.34759263439,1073.7791954465,1120.29078004148,1306.25660973346,1387.26551228095,1399.96499948538,1219.51935607682,1280.61045920309,1346.77708090515,1353.26644074901,1343.58734402318,1259.61493595551,1104.87537103249,1141.93215806349,1162.61660264819,1313.88724945005,1464.59073328564,1365.99072600383,1395.4964877681,1292.80377702351,1331.00376474608,899.035016394517,873.414259390128,966.974241399674,1150.47273521706,1104.87943649362,1169.55479508918,1230.31547620705,1209.5959901217,1320.20574851282,1477.91587191068,1332.90426263444,1368.87553229462,743.778303385625,802.281954311798,768.459974889419,1046.98273153066,1061.70315634345,1051.6025433479,1190.3009795917,1293.74159024647,1149.91949980979,1213.17567290791,1255.70852319188,1310.64232875393,998.072721935822,1036.79452761331,1100.2598895179
,89,1176.67980783709,1195.63654504016,1260.22919051916,1198.91927083887,1227.24209400024,1251.38803513438,1502.52027540324,1542.01043292227,1523.39767676965,1303.19769175335,1363.64450942103,1068.48998800465,1228.90481375984,1267.33810704025,1323.72818830468,1742.91460529086,1727.54226314295,1703.92412433242,1818.01374894763,1824.72988954509,1668.07457421457,1495.79170594817,1534.86965014517,1468.34790398237,1287.23559931936,1414.06178006522,1386.65480588291,1511.99258195888,1500.6754366743,1494.8802961365,1565.57441126989,1579.26753453837,1609.25298805815,1709.06175987551,1762.66422920607,1659.25144666375,1423.12405835712,1432.89363049275,1430.07070884778,1678.93822065939,1738.66204824449,1737.72506986346,1212.5240278034,1807.24991214451,1809.91603658944,1773.96058433092,1824.40404797251,1739.84799687004,1384.73164352746,1434.0805286428,1506.61283171909,1696.7162443766,1810.20214931363,1824.27592850578,1606.21900558682,1686.8513358433,1771.87171764896,1776.69879741342,1775.67113029311,1669.1431595558,1422.43742193706,1457.94645772057,1500.48149700554,1623.41365523222,1820.67638381298,1694.48925485424,1770.51370989341,1635.65311892457,1680.22924921692,1150.34398048368,1116.97988019729,1225.38401688542,1440.61745447359,1371.74932222439,1424.21828953766,1573.33475927772,1551.81078754984,1690.6593952977,1908.48912479653,1712.34352886494,1750.12198020216,994.747798986208,1071.305439212,1010.83020417962,1288.48335887912,1293.60877277072,1279.81823542612,1496.40127514413,1627.73831282252,1442.77812142418,1462.64489955349,1513.30965802937,1560.12685750975,1313.52362259611,1373.41391213721,1455.44159371673
,89.5,1702.10957476062,1717.6599541684,1813.22805154132,1618.08324297449,1649.5884035278,1672.02583666962,1777.87571729404,1816.48722979472,1788.61867292978,1634.61314347517,1702.59730063905,1384.33648483421,1702.67969907094,1762.27538804556,1844.64402474467,2148.32053007361,2140.60023524503,2095.41339787717,2086.04497561377,2073.64358803144,1888.00362639224,1846.36461103723,1868.37866751691,1835.15937032602,1738.08118066665,1937.3049779325,1888.09853298659,1763.82454193599,1769.72371893235,1761.42677440634,1794.38633414037,1822.27105434906,1842.83976319615,2079.83504389768,2156.78708675824,2042.44661944682,1889.94283580167,1897.1256504818,1889.52429489533,2005.58421216498,2080.52799590458,2080.20472763221,1162.43198130504,2167.25189828493,2154.84476503969,2128.24412114265,2201.24895029574,2114.14891819255,1772.86675349726,1830.58886312533,1925.5940484046,2031.51678412957,2182.44252955195,2188.40561303959,1964.92742058615,2063.63410595584,2165.89056963642,2139.52134706568,2154.76622253864,2042.71713774025,1733.27271945346,1777.94369165267,1834.19240044542,1858.58236578693,2095.18365991236,1947.59615202079,2093.74823387752,1927.89312118675,1970.02538586934,1470.43660144839,1418.12228672632,1549.36254180609,1717.21195174168,1624.69890409921,1643.79444313931,1867.62560555885,1855.29512195612,2013.25080981466,2279.9632030049,2037.9288605123,2068.71832908474,1364.51794387628,1479.944375574,1387.79268389411,1516.2304467103,1518.91720347694,1487.83560436178,1760.43932258315,1919.08966838925,1698.57207896573,1622.79262091688,1684.35530274149,1686.49832424718,1654.85554918743,1738.58358341662,1858.4096506731
,90,2177.30332104397,2205.16456981346,2336.59840050628,2003.96271726045,2033.21652778382,2046.88661581251,1936.86221776998,1965.22782607638,1920.32987487418,1913.27016464761,1985.67635149834,1652.4299726787,2119.69280758245,2202.78619979941,2310.26127148921,2411.51167584796,2413.94287313062,2332.78209769625,2192.5420768463,2150.27892649528,1943.52111759596,2121.60394863057,2119.98866092401,2122.73609194279,2123.88900146163,2393.70565203129,2319.7321980298,1942.12093576573,1969.97338109554,1958.54877962681,1890.90767678518,1905.41961062491,1894.59947889547,2256.05599657892,2365.88050782859,2269.43763347887,2282.58604853281,2284.15884337517,2268.0010177137,2180.2075022481,2265.85175631987,2263.77892058509,1050.47088232036,2297.85876424847,2246.59049673347,2311.96206579193,2409.97603423868,2338.73281543614,2076.65614530776,2140.87125086706,2249.53037735876,2200.53984771673,2391.11154100155,2372.18508173752,2159.44161610687,2275.2633274662,2386.45691476224,2343.21617924503,2375.79137928346,2275.77073934723,1950.46695267904,2005.01569197768,2072.93565266143,1960.49699543964,2222.99592296828,2057.38559769346,2241.0382398884,2049.72434134035,2079.22463338234,1800.11694966533,1729.6161129204,1899.93548645497,1894.98689859437,1786.58306107088,1765.42415145423,1993.24807263414,1998.60436244876,2157.50210629989,2463.05162363763,2194.7194761082,2204.40475285589,1757.24684102776,1931.20247282004,1815.06285950223,1662.81031504133,1662.38781777993,1612.93884827096,1898.41436720686,2081.25386699933,1825.01116019124,1675.56702858516,1743.03189716242,1698.01443460623,1948.60349733948,2054.98696854443,2220.65548601603
,90.5,2573.70291737249,2611.26268252013,2776.06848431313,2256.73676807571,2282.51940554059,2285.994233988,1905.92699501292,1919.63730403201,1863.74693720515,2120.03693365849,2199.0099369389,1857.69319037756,2429.56219489672,2545.74266196939,2674.47878223589,2372.41153979908,2387.90552320646,2284.50320783016,2036.70645637118,1957.73645977614,1767.94610578706,2246.45119700336,2231.87361869768,2272.2448849851,2392.52900877729,2732.17651845346,2629.47415958801,1973.78215003565,2028.47873269966,2014.30700621698,1766.59061457224,1770.48095150519,1733.78778080954,2216.95079068103,2350.23855391389,2275.4222659143,2550.28650315985,2545.74558590103,2515.62714244236,2155.24424820271,2245.74528345314,2244.7703633858,907.420009764404,2111.00145262545,2040.17266268281,2274.46044872625,2380.77627692429,2335.87436487782,2256.93387612387,2326.00733248707,2435.14355991869,2118.28536793779,2327.52257924315,2284.7991748277,2132.66569732597,2251.0066186593,2361.82007220882,2330.93067298305,2371.41102037969,2298.50007672688,2044.62100845453,2116.84526630935,2180.54621271817,1880.81283402379,2144.20963245589,1977.25120128108,2174.60559462917,1977.55743016745,1990.92160097042,2054.40464516774,1973.71099237253,2192.30212982716,1959.58219296948,1851.16974604906,1783.36018066184,1920.62975001692,1944.49025894968,2094.28910227108,2392.72616002796,2125.00051415993,2114.66590060628,2074.47199010303,2305.23580647142,2178.1849406948,1728.18642502303,1727.56261906433,1653.24443770276,1855.57140196352,2049.20257119269,1783.57570463894,1675.89928898144,1745.3494302988,1665.66770362704,2143.07016287717,2274.26154159111,2491.07273803511
,91,2777.42623941257,2833.79574491943,3015.81996849508,2341.95829016483,2357.5914361375,2345.41968750013,1690.0952933012,1687.7750300966,1631.12298821219,2149.09454970259,2226.78070804609,1900.12667573942,2486.74696189693,2665.10638388324,2806.07316474934,2074.24734548316,2107.84895195045,1997.69547148067,1658.49144008031,1554.2816489411,1420.82482107011,2122.11227812897,2106.55230773623,2188.10611584029,2414.79377557028,2822.13833353672,2685.33850674846,1855.32796071139,1926.9893294205,1908.99029512787,1542.53397796267,1555.2503535418,1510.006406913,2013.43043018702,2145.67742292284,2090.18739104423,2584.52390764657,2566.8465214242,2513.46510450956,1937.2682088824,2023.28072578205,2022.99663809346,747.478536675022,1820.85064558678,1755.47602992033,2002.69570464909,2100.12286962385,2082.91154336422,2217.29620892746,2285.25530137805,2372.57984194991,1809.88831588215,2008.13057697127,1951.46056257693,1894.56044094194,1998.70708991588,2096.32124574717,2053.59483108909,2098.63232860849,2064.95291571564,1927.18341489993,2023.86386272825,2058.32352041188,1632.47034398302,1871.38331957612,1722.04606351327,1955.74577620788,1773.03772759908,1771.60789047261,2158.45372523101,2074.70563419456,2335.61439416235,1837.56421635113,1745.74899535675,1628.44488766634,1681.92506171032,1721.0373041077,1851.42416048796,2095.82343244795,1855.4964535884,1831.39031473349,2237.22331774573,2512.60882724988,2393.9568772857,1646.39141867702,1651.01666198824,1542.10919041145,1673.42661293051,1860.87198387871,1620.02815451636,1591.23638636984,1653.12324727744,1547.31328544609,2138.09389250257,2287.91926514858,2555.71601473966
,91.5,2512.10485102516,2577.14752275118,2745.81623386851,2145.47593337802,2148.13802193581,2117.68626585405,1370.96851124171,1353.66129183448,1300.16872234981,1920.62000861064,1985.71411820684,1715.80642920558,2124.15769177118,2331.89846241062,2463.44087834214,1634.81253071548,1680.5458213482,1567.79838356764,1209.41106307402,1103.26064606273,1029.59592852845,1760.00642724766,1762.14260668855,1870.38218982825,2042.91921435928,2444.59464095966,2298.15346360947,1609.96339850734,1682.89924942986,1661.74363089112,1291.27171358848,1303.09046936827,1243.26568561802,1641.52798234787,1760.17167230913,1739.24234778685,2212.17481679167,2181.20963385282,2113.94575449563,1561.33270847937,1632.77013696259,1627.61100462131,596.432123332972,1479.57380027298,1410.12583963888,1570.40600778373,1645.48285007967,1645.94592179001,1843.76074873059,1899.14762519933,1951.72220778056,1383.07235481214,1549.52715055022,1485.87825440524,1495.77795398659,1578.94766237874,1653.81549916354,1593.01807425046,1633.18869017321,1628.44857964463,1542.80939472235,1641.03833903454,1654.56895642606,1303.39359070562,1506.75441294659,1377.1503799741,1646.93149779566,1488.45592021521,1473.9646997257,2047.82547072958,1977.93144077815,2268.86602064497,1468.38077807603,1400.42985898945,1267.61973353737,1315.96611225105,1362.96714810099,1460.6559681388,1658.22867006512,1466.18925722868,1430.17501049392,2135.98345803806,2432.46857797614,2349.62921581251,1345.12082568269,1344.19381336534,1224.8633669462,1429.39322163701,1601.20249697918,1393.18141464561,1395.15830259549,1433.81858334857,1336.70256533897,1874.26316984015,2022.12958740851,2309.25147897054
,92,1894.95669192593,1947.74457026804,2077.18782251585,1675.83473565909,1670.63892368329,1635.56949870386,1017.74150683882,993.873771429256,949.257860079233,1537.11618313455,1590.31147634121,1399.69397760557,1536.29792272736,1711.2406344646,1815.73422027033,1112.36592700373,1156.06962624154,1059.86793144261,775.842187462455,682.828569443242,665.105031326484,1291.93512759596,1327.25340160739,1437.33568518187,1463.93785589516,1780.83389504088,1657.89628799158,1256.70164850607,1322.43773091585,1301.86817327533,971.800225531945,985.751270772715,916.485883760581,1202.91442276629,1291.04252945219,1295.81560641411,1596.99656366746,1566.40928886235,1505.94047584285,1122.13367658729,1172.39162928498,1165.36411860321,443.588367602498,1024.38847574128,960.438700204958,1123.25375019015,1160.40034415609,1160.24820201215,1301.89503275409,1341.31115221745,1365.97320716427,946.938448221213,1066.55016060067,1008.98011761143,1054.29767548042,1111.37723403105,1162.41368919885,1119.48747592171,1140.27496843104,1140.64998997098,1060.50016431814,1138.41307865094,1147.8657347405,962.268297009842,1125.77010744853,1016.50523960458,1323.81081360783,1195.00559807812,1171.17408437235,1691.78137962097,1651.55294890911,1939.8111890045,1007.56866938291,963.928139786626,853.801217919421,914.712282332961,959.157892668243,1023.44403848309,1184.66119046432,1046.19772469492,1005.80255841404,1743.885853872,2010.56804733394,1976.31307223789,951.050864000114,935.95573232935,838.151706668019,1173.99150084685,1326.71914089961,1153.56981271695,1125.39709573095,1132.48847960295,1093.46078647181,1446.71174362323,1571.85350087019,1830.1508087579
,92.5,1278.22665308667,1316.00270614742,1402.42388171113,1154.69834913797,1143.25934003767,1114.44293384822,683.434262155717,659.681910042536,628.607397013772,1116.15768515747,1156.28046477011,1040.33848903133,986.731530120408,1121.46425265917,1197.60426759209,643.126707410383,677.326875466811,612.320614206369,419.791856106331,348.814177986523,370.347676745071,832.095938479743,887.613736219803,988.00287937955,930.673600881839,1156.75852552332,1064.00210665935,868.816550973674,919.328827948317,902.912094702286,654.852737400043,680.30888310251,621.148990693757,834.708962341383,872.826412177939,880.965432408975,1025.02648130144,1001.24952686506,953.157978240459,728.311975156576,758.313424653332,752.429402789807,300.5416572648,616.61958868721,578.631219945355,744.513619240779,745.193428052462,737.817410291759,816.170125940764,841.929889058119,848.452426926061,583.603911399963,657.528244409997,612.772634622478,666.057206177429,694.74043779245,724.574141850913,713.199149169748,713.741427582368,712.862299081814,644.11702832133,703.232380426952,703.261909237915,641.893761902554,763.282570824082,678.271345404122,1031.72020247912,926.310108854609,898.48333719327,1210.83866487445,1194.66093691589,1438.11637517799,615.379738456423,593.428527839128,510.293536544623,572.292846709098,609.126356199343,646.763830890448,758.327818413654,668.318218773622,632.057237928561,1236.71120366469,1432.11826338014,1430.69913442533,606.105209022641,587.482359241975,512.678545080417,931.249950531556,1065.4292898055,921.699062483492,833.153582916368,818.720367109669,827.155233179056,994.689083248867,1088.12716358204,1290.54086249957
,93,713.515117419543,736.864630761633,783.196244447629,701.90836982415,684.914629591436,662.39746539588,426.010785987798,404.012556978688,385.318076399813,697.597161567627,720.180287588666,666.145938028319,499.589012654609,591.208350605949,641.587985015751,333.033809625644,355.640075382946,315.692810815111,196.257630641482,154.181281932734,188.148836951929,443.575000432333,500.417715773032,577.285620396071,465.841097533814,603.599820198021,542.739165368295,538.681910707189,570.252349092646,559.824742633528,434.458764945111,458.397043139931,414.849234001385,567.428730174888,557.336991873231,563.567858796672,528.805023228414,511.668396264143,477.254656851419,434.165792197153,446.223758150942,438.828090893678,191.491486686715,379.494999885953,358.303645610438,464.560252314148,437.440607420381,422.862170859041,405.786500076901,418.414016237301,412.764897287076,334.553549373853,372.584350132988,340.730868991503,379.450641715376,387.195834823186,399.367263846862,408.642707056954,394.259605430542,387.613661593854,302.006479877038,339.916251089429,334.932986988064,394.905979932488,478.377572169719,415.264265106008,759.298748900607,674.47321353323,649.150094018601,761.661021796007,758.186949468249,936.765161140156,294.579299969043,286.240591861381,233.366553643002,325.372840141692,354.016966236744,370.233049644753,443.092367624321,390.050748753422,361.871285183106,772.458974098365,894.572246180367,908.695733216483,310.228833353917,292.931577675995,243.462566451218,689.973776271632,798.704831070795,684.661823019897,548.069229515241,523.418295250038,548.536737273562,586.822633343476,643.469967544363,781.137420874818
,93.5,256.086286438241,260.98725300773,274.883444181887,340.285248554864,321.702054109932,306.51808020623,260.823851741987,244.137850148504,233.205175407494,359.754928030624,371.277556729516,366.132788939136,149.00705373368,183.965948108707,213.718327337109,161.632420748472,169.30409449112,146.752761121992,95.2211126657496,77.0236975587884,102.214535992876,188.282885593286,236.683024944653,281.346117021987,135.214140748178,186.116726470024,161.394205647833,301.028032315876,318.254489312392,313.160866615691,270.662139700519,283.592927088313,249.255185892559,376.523951523872,337.570940154282,339.807683191853,163.331436569176,155.015235214392,139.273588992073,241.391868898672,243.138971676239,232.546312725835,109.510343902196,205.444438327283,187.545216168419,294.993494632077,250.564637432318,229.707150983414,118.141635300041,121.693306670183,115.473422691205,194.61691471723,209.913582138555,189.250237628939,205.319525192269,202.369668357877,203.813737699504,236.539553760872,211.202903999651,195.711279232745,81.1673156221439,95.3621745956879,98.5620171527706,240.431113066954,296.733238788252,248.364550580176,519.083575329665,454.349128569606,435.91406012469,394.855894291177,399.242250520777,514.184426735388,83.0559291067834,80.3243694186642,59.7838902101166,169.071849102589,190.410329247898,192.622009262818,247.905560114628,218.89069117366,195.788811167251,389.757559208094,448.336483088684,469.578878449102,102.162466319728,85.7081480634389,66.8725456181746,469.128203159388,546.686474351277,462.888896342606,306.751006774934,280.607738570067,318.828157887379,280.89865959807,306.386793160994,378.746968839616
,94,49.1679247209864,41.2793061822827,39.7668633952304,133.810272479706,115.289282604783,109.924712264355,171.522589922666,159.508930254618,152.9953079508,185.930724779862,192.169549366647,208.310350684534,22.456188265811,19.4645582244585,39.0843180384803,76.2243830541786,73.5005991538176,64.90368734882,53.7467718237351,46.7457220391254,60.6785646126049,75.3554540330686,110.22665787712,134.221401727955,16.9056158734334,20.9513982048609,17.4472959994573,151.149978671775,159.930550874413,159.823972376649,147.149613511661,154.541777073145,129.615508240121,287.794201441087,226.076119687812,217.900385426126,19.238624782435,19.9798934111762,17.614317073303,147.093497279225,144.035789689545,134.299419370016,47.0823850653596,73.4051873106644,63.299660496381,233.451900023846,180.81433668016,155.462227590072,14.5981551325195,16.2070133091047,16.3613054112196,141.507799010679,147.530065399607,132.901148014901,126.431077811668,116.288947237317,113.406385986217,179.938597929004,147.69839407245,124.659215522437,12.423197000444,16.0421633416778,22.612844715838,150.148370518674,188.809885397665,151.019292121434,395.523936469583,335.668484932931,319.196623477092,156.595318372011,160.709864635744,223.727863575993,15.9455483279681,14.5443812671424,11.2078478664907,93.1090424099056,110.922987374488,106.755342321726,146.526133134251,128.221924313003,109.758028744953,154.183022448761,161.656078680967,176.67966655748,25.3175469786109,14.3013854219278,12.9788223951468,355.017604925456,421.109149892903,344.601479999796,150.720573925965,128.632753226989,167.124450060474,127.549861356032,132.596967288064,158.241437318231
,94.5,35.5728131149559,23.7096502918234,18.9265857485467,77.6499568168282,56.7908390191044,53.2709061308692,111.805801227804,105.189243500203,100.733559914212,83.6024344598136,88.121474617488,119.345341330322,23.6574960056224,14.4005719022153,35.7349012001981,55.6045719791139,46.5580184494268,44.9035837505522,32.6948921606283,32.6544294118069,31.6153204245351,32.5326060825189,44.1326434076351,55.0474769586669,18.4932542600523,16.3098215714715,20.9796026327385,75.7023789754677,80.6030676232183,83.6662856154962,68.8588710498969,67.8589151493393,54.4397968624355,251.005283188658,179.020098912341,155.830011357043,18.1768553371865,20.6091397637223,20.7153066945029,108.805891590409,109.537091934064,96.1839987682686,24.5693278755243,24.933065573982,19.3290849533478,191.651122534044,137.910089944377,119.986489810935,17.018053058595,18.9887347536096,23.9510647272949,100.930166577125,102.741667092711,92.6676871161828,87.948483329599,76.8896554978726,69.5749227999751,150.069938606322,119.541396084588,103.439536757529,19.7135967318837,23.8800586603599,25.8995143034708,94.0684671804599,116.309662594103,89.4686776947556,222.602534881941,176.55713400934,170.003604383553,57.9796693074394,52.1258297212103,76.9394232006538,22.2604592110957,22.8263884693629,16.8027065888346,59.6247110555531,77.3799541401336,71.7943339835556,88.6110579914293,76.9234758533951,59.3018748438915,72.4217414934791,57.9009955360716,59.084584542233,19.1150868573831,21.7276880409415,21.7878202243587,176.758565650228,212.953069992776,165.491573964773,62.1791760293347,54.8588491832094,69.3801759472002,69.3050377693306,69.5309071389644,69.6254688234302
,95,16.0996640889658,10.0214734411825,7.15718646185871,29.1421905687629,19.55960284869,16.4443858650961,31.6800689842258,31.5919333137717,29.9790139617046,6.92272129194316,9.21923970842067,29.9844893694597,9.95804683718427,5.00597152223338,15.4490010766252,22.0823200523339,16.6540988910504,17.1976242185179,8.01494005376503,10.1722234102137,5.68171830505833,4.98537089894376,3.08610273831493,3.95625642628397,7.01030923361259,5.40022952940831,9.98878678273286,20.8923090491045,22.8982820029066,24.6670740741374,14.1444575692802,10.7380764826071,8.30406525770582,95.9653900359118,66.4869886675549,51.8562259067364,8.31903903070702,8.49648888482932,8.45398036293409,38.481822860649,41.7130651153636,33.7228103995747,11.2108185176194,11.2611788336587,8.49145360282091,66.3596366331952,43.2110434440839,38.4210175985113,6.94462042918633,7.45289474548281,10.7610159086784,27.5669939882985,25.6374096001705,24.4916511262011,29.1747161785149,25.6017239421324,21.0866327658715,53.8921936575179,41.8619485047803,38.549278028752,9.45165848617773,10.8861073168897,11.7392889894118,28.7682202359745,32.5053603433038,25.2669231795371,27.5137294791639,16.1929739298491,18.6843987748751,16.4582685614276,10.4939017142556,13.6175747673291,9.96090486237256,10.9091379536208,6.79435835129698,19.0668025618623,26.5683750297471,24.619785657469,26.1500940445148,22.9351616568486,15.3069418769771,25.3851156029285,19.1349737061673,16.5801672278687,5.81379289060703,10.6809978663812,11.0698526542615,3.57627948024106,4.19897660535514,0.242629817996885,8.74678404561496,11.2453561823837,8.75274434235632,18.0715846036927,19.3756865028041,14.150623489494
