,Cycle,A1,A2,A3,A4,A5,A6,A7,A8,A9,A10,A11,A12,B1,B2,B3,B4,B5,B6,B7,B8,B9,B10,B11,B12,C1,C2,C3,C4,C5,C6,C7,C8,C9,C10,C11,C12,D1,D2,D3,D4,D5,D6,D7,D8,D9,D10,D11,D12,E1,E2,E3,E4,E5,E6,E7,E8,E9,E10,E11,E12,F1,F2,F3,F4,F5,F6,F7,F8,F9,F10,F11,F12,G1,G2,G3,G4,G5,G6,G7,G8,G9,G10,G11,G12,H1,H2,H3,H4,H5,H6,H7,H8,H9,H10,H11,H12
,1,54.8857648293388,147.494357814235,87.9518320486641,-251.551453326274,-278.633263862595,-305.527425479469,-375.652149757992,-308.20635110197,-327.910097438384,-24.8690482510519,-25.8502665149472,-122.482358359347,-3.37516341847731,99.9410832792155,99.5774205900661,-14.2982366938022,-34.8360064117833,22.2469814424876,-45.7481582925793,-39.8044807109009,-80.6586156752419,36.4049294338884,41.6050442492979,-42.0361351571419,-10.4700211796235,86.799552920068,71.7290292595162,-139.164511587468,-75.3477994888081,-157.867859478787,-164.951230090186,-128.843579400234,-130.836322242592,-19.3466449794832,-63.9580044877603,-233.957366465582,17.2432061659438,71.9793332222434,48.5897219357976,-17.5823121363137,37.507283948562,-1.0588351884071,-59.6043906546565,-56.1685456884807,-23.6943477203367,-33.773132476239,-84.8114297854208,-288.127250973248,10.9567134348208,57.2554983474683,43.1514054578129,-44.6841908481128,-24.6811551408555,31.0994140774155,-28.5551561157063,-33.9859707536161,0.0677163367536195,41.1385167924636,-35.6044941504097,-175.109086423712,-4.05079869072233,41.9165309947966,31.2429891604424,-167.363078210845,-173.832251231901,-204.248676378871,-39.235833102337,-72.9272985842254,-34.5800944564471,-10.5098936398772,-4.33431795258184,-73.4958002465764,-0.389227186157768,38.7312147507946,36.8741756599557,-72.4862102770985,-94.5828677450936,-78.0061276003034,-75.6233527427066,-78.2563533995635,-90.8784187256488,1.48919845155615,12.3180996555129,-57.4312635914739,-47.3348169149958,13.5982685712779,20.8592376734059,-106.330540050108,-82.2668147904142,-135.289171614419,16.2111168588981,41.1692505841929,61.6909555562752,-9.02325622444187,-15.8828907186698,-124.174482024314
,2,129.878297253084,198.640584316848,144.580301597181,-110.297783867807,-86.4793241513989,-88.0176364280496,-100.179895242538,-115.139231381027,-83.1897827432804,24.8490928263682,25.4742426816401,-15.4132237484209,37.9514692667135,79.8399097979636,69.5204719137919,2.8688671738073,-16.549828319472,27.7427885540583,-14.2681539769073,-17.5969014215989,-18.9428730803811,36.9959916547978,38.1473770398552,23.4969636360756,27.2785968223925,46.0411377565251,60.5669466760683,-50.258533663402,6.13573489564351,-56.0659317799564,-73.9159334621027,-85.8114861136719,-76.5076301706504,-24.2556472708839,57.8162597487062,-60.4402355456641,53.3864602045833,47.7121844182566,38.4213642517607,50.9995406033213,88.0989609730586,-67.0600556660756,-33.9363336511105,-24.3020272281874,-0.65381342697583,5.81223566367407,-55.3422329613149,-65.5763614114949,47.6335917511024,50.4419172890302,38.447103798977,11.3743930004475,26.9176744496763,22.7582700739222,12.9415108315752,1.50016961102938,6.6823805171507,36.3850700239818,-12.9076904264948,3.10308905960119,29.5335519970595,48.1721370776686,29.6158255883011,-45.541946372894,-72.4566379744228,-45.8660180813149,11.069367180844,4.47447084444866,-10.8470566910892,30.2422354238861,19.9547162281751,3.00716890747208,30.2534973943775,36.4410665931164,36.5864575617516,-17.4408048811001,2.53850079406402,-1.28688890736885,-25.0230471948398,-24.098763065027,-15.1611280770185,46.3443136773994,37.601224130015,20.173920061914,6.96559026925479,47.5624974470611,37.1163235639224,-29.1675270376745,-10.7922041547881,-30.5499363099016,70.2807619692967,41.5986880631053,71.1903856352083,50.0395363790049,42.4604109746742,-26.5802020757446
,3,163.527986920347,225.605471144205,181.109470679915,-27.1677015532223,-11.8657945866453,-30.3199443350804,-38.3845181011257,-38.1685888523516,-36.5103922914859,31.5496591730089,28.0376585829972,-0.377584314157502,32.7580106840942,46.4883822712527,47.76183142236,4.14903113651144,-1.14597226530896,25.7909451569976,0.888631113965857,-10.4345254833815,0.792266284029211,29.4716675175196,24.5322654608653,14.951072097826,31.7343918790657,21.4318241236506,46.5262307427593,-20.0235941010696,28.2871546342631,-15.4093042527111,-48.0240053456228,-51.487455915194,-46.9211027451065,-7.87331514273319,3.22003456046878,-17.3814951992554,41.0347862475774,33.7978799913844,30.4341792023324,2.67678293663266,32.2371588819515,-61.0685993781863,-21.9110419272647,-13.6896111882752,1.27945563760295,13.0562855273565,-6.99635554868291,-12.8846897053627,41.2466707614394,38.7612815136454,23.9220300564939,11.2536273882797,6.37517069688511,3.55746326051485,17.3884471394304,8.14801789087142,5.03044178743767,-2.0282112925106,10.0250200206065,20.7194701983208,25.7789391545493,24.4449494067712,23.0635262594542,-20.4667343242309,-36.7633184101142,-2.96418455480671,3.24976966756185,-0.945522828989851,-2.27002489281404,11.5407082156653,16.9402243825443,18.0878888991983,24.2757769203554,25.6716855450359,26.7442473043411,11.5220786472737,2.88138989841354,3.79397159443033,-6.29710264517234,-4.53531653187747,-6.80516153000099,48.9097725271722,18.5917205160231,30.5207459805724,12.3072645189177,40.408167286233,24.4771078895647,1.65745129749939,-7.99515161544787,1.38036897606526,46.4923768437675,26.0010806083501,46.6588257677422,34.9916441926589,32.1999486511413,-9.90775256758752
,4,200.731981226477,265.395911272639,218.542335756866,9.63765799179964,7.68000883446166,13.1096284310843,16.8299537563889,17.7880111356244,16.3772886734332,23.0947155509584,25.9433345017633,5.19277408588641,11.5088370547164,20.8843467087709,18.7913139839347,19.1134152493505,3.45888737732275,36.9992816246886,5.9721397855601,-0.0402614332415396,6.08818020353374,20.684534989291,25.8112115839022,27.7561307969681,23.2259836790518,3.43475078007486,27.7683825182903,-0.355328945515794,33.371421749498,5.32775775280697,-18.4087788817778,-19.8844136989428,-22.3558164143133,2.40226363708825,20.1625008812352,29.2125157025275,29.3180883736859,20.6351326831891,18.4461251731036,25.8643496557816,20.6732966867239,-31.8839153989247,-9.33737907587147,5.23820852799417,12.1448493576891,19.3950278493085,16.9115081286309,18.4859618023711,29.6328338201447,25.5182881340797,22.5167992062725,17.8013940644269,6.63687081641547,1.10655206873525,8.14559135964737,-1.86829205192407,16.1179416706345,18.4147787526363,10.8223479065764,14.9622854502995,20.0110375799359,20.9628108295437,24.0706815650738,4.79726413908247,-6.17131852370949,17.3535943199277,3.12823426904106,16.8243321776426,2.88405288531794,18.1069121131441,6.0035831205123,12.1201542065155,17.3030460787259,18.4594531794191,21.5613329956459,12.1690892346815,8.28221825860419,7.05339663636187,11.1600567794667,3.951507527172,13.910102841186,19.0692041820757,19.1990110325105,24.9016702579693,14.3671498493277,23.1040113776326,24.8908789281413,-0.182626432913821,1.54941241993583,11.7434351488164,43.1567543935744,21.4789438267844,31.6251007875107,20.7645396267508,22.7282639478917,15.9353597711206
,5,269.08557793379,331.290801243736,297.261726103246,25.3202878439988,35.0897227380001,39.8019952475242,26.2486844025334,39.5604867526654,30.1430160699147,17.5838141106724,15.2329958059663,19.4706868671965,-5.10913910451018,2.82654489216202,1.88304379239526,9.16120981218501,5.77652865101118,27.361364426768,8.41115768415875,6.21064160819878,12.2867506926777,15.9631499816969,25.9973887668493,20.3320056578959,8.57978577510039,21.8808397128641,14.1578559823311,20.4252046456913,33.1108979778783,34.5436869286568,0.292174723437711,-3.39202884727365,-1.51117180353049,4.2470238107162,12.2306603977522,21.412082486986,20.483654115862,9.03663351511568,6.30883012183494,20.1174061373367,22.457317605451,70.5675646399468,-11.1128418083781,15.060709522003,13.2184811016969,21.7819509396395,31.4030776216659,11.8083070448411,20.5566559881163,23.9075641736672,13.6738724703191,14.5358312684893,9.7762033473191,11.233930281318,-8.21238827548041,3.04432207607897,8.69018104498991,3.96310974776679,2.38504069390729,17.2308293532315,21.0435645502539,20.3028436542363,14.2155302088959,35.8925332760664,54.2811467346673,33.9967117963588,23.6072831467591,18.9515204877516,20.7908960700042,11.5106193068832,15.2915308888823,10.37386888125,14.5556600486798,14.2589532491675,16.1863324829137,10.7798111143147,17.7404175546599,15.3039365457662,14.9678234135536,18.4965774361517,8.87737438137174,16.1369678739402,21.580736196609,22.0132178112735,19.1632007427052,20.9513891140723,21.8046657245668,17.3437369250296,23.3039837092647,4.98794448671106,21.8949057160371,26.0458111170901,24.8543401492243,18.0695418705682,16.3320704810549,17.3391460957992
,6,385.770769903877,436.80702861167,429.029120663563,36.8949812174124,29.2448667370354,38.6519039342338,48.1972129670594,37.2137532706456,36.0797646260744,8.56055642469346,20.3319345032769,16.7956134841543,-8.99573310442338,-17.9926955166811,-10.3914120304889,17.6693923224011,16.8206652442368,17.6625482327672,20.0062905144496,9.09185179138058,4.82052502935949,15.2870805854491,19.0568463430654,12.9817952960975,-6.10546362905006,19.7651401154799,1.32993979428466,28.4297456418353,26.6460772599139,27.6163381297401,19.099606648565,8.12223299406924,14.3754896921673,32.3154818448638,24.3559918571609,31.3387583443582,16.4585179504475,3.39116414695127,0.959352891527487,23.8868664253168,19.3355132493398,77.5039753106048,-8.5927927613202,16.9159541265781,14.7941468632243,12.3514296573831,27.9303512305014,34.1698430913275,14.970073140571,15.9129845475718,17.2555525237021,1.47735578305401,6.91318330622926,-0.545078988241585,-44.8866986939793,17.0659834528778,8.51372082698254,4.77297915705822,20.1645156655377,-5.73823653310865,11.3375819468411,15.9295587671913,11.273708917076,20.8749562805988,43.6842742134795,37.9170583152609,25.1493270566116,24.6847157765551,15.3040642227697,11.4867843362445,3.53933369351216,3.90795871522096,14.9077394385467,5.89217241545612,14.4090791885328,10.4704144561701,5.66843358204278,9.46214599380983,20.379340057556,21.0913315114285,20.6636600454412,7.95773203800309,20.1188095972902,11.7976164438123,13.9028315134401,16.4231487775332,13.7383446248496,12.2837566871494,22.9655512692207,10.0962858048542,13.8121876892574,7.7155958388721,18.0410069802783,7.88792774827289,4.12078364065201,20.7711435058272
,7,533.206322534656,593.981727436794,616.583932396226,46.5463200109716,28.0314813043706,35.2303077375218,15.8968785425222,15.1634286570861,30.3915228494225,12.5003264215948,-1.28677199836784,11.1961767049497,-2.4973191964782,-16.4429654528731,-24.8414224333001,4.41085880506398,11.2351807100604,6.51446288277384,6.90047004179814,5.21188433494717,6.18988349611664,9.10523253860356,0.869715053478103,9.77687569489808,-11.7585002280302,-3.58154665923121,-6.76445793806943,30.2282034389591,8.37402528257098,28.9830943592251,21.7682888769141,13.8323174379484,18.7642875543352,29.1253911307413,16.6412823056271,12.3737595914899,-2.25759064159138,-12.7438317860606,-10.8887808268782,7.95798026927332,-9.25115987535173,55.7303550450306,-5.62884739943547,15.1997111275632,8.57629478712261,22.9992060385157,24.8067798883094,14.8422950297245,0.551708104063437,6.92828911251218,1.90481458345857,-8.52404868128542,7.73876091722923,6.41564852499505,83.5081045622592,7.8196532214597,8.36747585146713,5.27168747686301,3.58369003717053,-8.74990663783319,3.75431229502919,11.1506611929944,6.45332671371852,24.7316591323324,38.6393833581551,24.5248001915643,20.8466288875879,14.7141167899481,13.1499062253533,-5.68219443703765,6.24501334388424,-3.18192792754235,12.4152404278366,7.61296761628728,9.14487926733909,6.85385821966611,-2.08614218558068,5.5656448340178,17.6392326082932,12.4050327288642,14.59578020958,4.45690771102181,-0.303112955386496,2.75676276446575,10.6826768529982,12.4295875819789,8.16055434528516,13.5382002243587,12.6316514701648,21.0380993101244,4.28145106083866,4.54568404207475,5.14093879910524,2.60801640245245,3.09033358695979,12.6774099690247
,8,873.971570272542,945.252476862262,1001.70959768578,33.4075029183186,43.7946936352719,36.4301267428764,15.6068521083907,20.4566981396438,13.4733774513697,11.7184687025338,10.8205271304978,8.57824674602398,41.9390232347951,9.23965480543393,1.94094035076796,-3.20375062034873,2.48043133091232,3.70507752232152,19.3342847553722,13.0293204238669,7.38357536459716,-0.252018824043262,5.71327696427397,8.75014632021976,-20.0783725027841,-13.6078838230642,-28.6969987321991,35.4525443169769,2.81364046774434,29.0596588958188,26.125464903088,28.1407657239752,19.8247157318428,27.885331725538,16.2773480313972,4.88950676415698,-8.17082342488629,16.1437156752072,-16.2866028329499,25.5078506446043,-14.9300434481538,43.5572223156505,-2.55679615700319,14.6722414901087,9.9914047251732,26.9777266598139,2.96088206634158,10.2881557291803,-1.96760938090301,-1.50515079216802,-2.92444196245469,-1.95435725791685,-2.71164625715028,25.6693806769999,57.534913186124,9.40156339021451,2.79790726084229,-6.28852865831504,10.5315597379613,-14.674798686081,1.21610199452061,5.61050923596395,8.1747602717569,25.747108249916,42.3772325537266,15.0367340129942,12.7107107963184,2.23812309830282,20.1929671384623,0.64648249903712,2.99701944323442,7.18010661002336,5.59552229620658,2.33838603198274,5.09803457674298,-0.735510980283834,-4.92880451186284,9.04409756305358,15.641546420853,14.1139155669443,12.8439046611638,-9.1581041339341,8.57201051036554,-2.59859676318683,6.83063361284894,10.1755776561249,0.0582054154210709,10.4149936324284,10.2416004584447,14.577873401513,-0.692718959810918,5.07567784871026,2.31489169973065,1.65938291330895,-0.608129271251528,12.5627026008515
,9,1439.26368097707,1526.2793507452,1680.71750128801,32.5106330512808,28.7662064557871,25.8037632133883,13.9815877694982,25.1591248187251,21.6108583581645,1.6355861079046,0.00735144763530116,3.74698531531794,116.980133391145,60.6746803218221,67.9035692530406,5.16734851282672,8.65344058681785,-6.2197759522187,12.0390820806797,15.5872967290388,4.61039368530055,0.745836981715911,7.88163443742724,-4.56561558249268,-25.6733264360528,-20.0319246057506,-24.8539184097535,30.5054704944732,-16.4484030160347,21.2894194823502,27.4750230923692,39.4978587602664,32.1615677589643,-4.67379611906654,4.3399291577407,1.84661839147338,-15.957303764927,-7.70020874235615,5.71070062624312,11.5352691162625,89.0548037300687,25.4478493742972,44.0816019989716,18.5442284714118,8.48086309663086,11.3377451827673,25.8996514452319,10.6877512706469,-2.42590275867497,0.513795012855553,0.648502926941546,-7.04076658220038,3.12033847222301,12.0327893513513,22.8389404380741,8.22434810822597,1.44432263195722,3.92742542517408,-18.8889201217116,-12.8882205871469,-0.272237354704885,0.0232693945672509,0.459888194689484,16.4090566512223,35.4902503432204,1.73769285142771,-1.40844127587297,11.1054577063896,17.7019570805114,-1.96978726502857,-8.0118266150248,5.09279316785342,-1.14972827606653,3.99461385338327,3.00678601237178,-2.99679275250219,-4.84441107760176,-2.68868281586401,16.1750500195303,9.5990950957912,6.02001246965574,-9.79536351626484,-5.63267392420585,-13.7785333105667,10.3044664516792,2.05537436659233,4.83539131932685,14.3268114280454,11.5626118262444,-0.965435808399889,-21.1936025130435,-3.17377242536895,-7.76539746920025,-6.25004737523068,-4.54344889591084,1.35915414703777
,10,2317.36404872157,2393.85322891219,2709.98226887704,28.7053242003258,11.8863004213945,22.6661873841758,17.706635640352,3.48770069208331,4.33088042216878,-9.85130225060038,-11.4602431573048,7.94420623293445,248.526830014793,167.212205402381,172.513044306355,7.78707076546198,-5.88807111236201,-21.3586088587126,-1.93155753825795,16.3515765984666,5.26344821715793,-8.02547194750878,-3.97112183164791,-0.705391270054861,-18.600513227545,-18.4218908758367,-31.5762246290642,23.2018957818409,60.4916683818574,13.4297893571429,34.5986753974239,38.3695195058917,30.5891556268043,-23.98683161806,-12.161004809599,-13.8754486687503,-26.1143464550814,-26.3575864240811,-1.45015370691544,-15.8638680921649,-73.1622327310834,-4.51242550786264,32.5292740570749,17.2702003712102,-0.112861625961159,-5.75413947402376,-9.20089995969101,-3.90196761006337,-9.19561393999447,-13.3914130488238,-12.5994148740592,-14.9383574702606,-4.48099292246297,3.03666287179476,-2.45126796007025,-0.38859825624877,-1.54746121210155,-3.18568262056579,-14.3798522351644,-10.7557521221406,-0.0799156413831952,-4.74668892102727,-0.123686388669739,-1.80306050092258,15.3020085253029,-17.2564875762273,7.31118940283886,3.38232540984973,-3.62845610299519,-5.31544156181189,-5.98634391492669,-1.09133335236402,3.49536228218676,-2.19267464372479,-4.64354908322002,-18.205655198678,-3.6599103682347,-11.481494557298,8.99390424212652,12.7226620586189,7.36268518967063,-10.1416260506039,-11.3071761713918,-22.9052940159372,0.925901698759844,-2.77145572727841,2.9800694432306,1.08707938560292,1.04986021001969,-0.97442183878411,-22.3321236069878,-12.7258395127419,-15.4934032009396,-18.8709957561305,-2.92959042068378,-3.00239040041743
,11,3929.45635297773,4033.15523505448,4580.28278304374,6.95599107037742,13.697763978731,13.8415516495861,-0.46346325718514,10.4578257570283,2.56729586418805,-18.4904439313523,-6.97130699111312,0.639388807765499,533.042002779313,382.784451710901,407.315938656685,-10.4122731236403,-1.72048274364715,-23.7979193939573,2.9464545550245,6.70959257931918,8.50868462005474,-8.05859875823262,-6.37707389404295,-1.84209123307028,13.2511270158448,7.82407573541514,-16.5468181189553,17.7939225509635,38.6847293549745,8.77864704086642,31.2406694712736,44.413669767494,31.690620599069,-14.8751934457832,9.5852272834527,-4.52060904273094,-28.770841707259,-20.7402364064474,-4.42369739832611,-24.4151077576662,62.728247386749,-6.16746722194512,31.3218883340851,-0.721072032790289,9.16006403175106,14.2696894208275,-2.08318692506327,6.95519599442559,-13.6366894467528,-16.4001841604704,-15.1952181523411,-14.3159742922871,-1.55388330124697,2.78713240077377,-15.7949756975577,-2.81591407685846,-5.74575132622067,-3.09308992692968,-4.17022104648458,-14.1689852375384,-12.4704849280588,-2.14274963489333,-5.65509859975282,7.98171985088447,5.19986144398172,-21.7532943369006,15.7300695936065,14.6101368841173,2.93660061422088,-9.64804627908688,-9.20759566737252,-8.64844844299932,-7.19142104469211,-2.54225118887734,-3.24361590678745,-14.7070359386344,-7.7912973538987,-3.90383240894698,9.8691261666354,-4.95905657612457,2.15490275189222,-15.3102111147273,-21.0648945503608,-12.6278076703247,-2.32728631657574,-1.42915095993158,-1.75467725752696,2.80218534818869,7.78243887671579,9.87040054671161,-33.6929185364643,-18.6431736696732,-17.4506450979725,-19.2837109513148,-17.4895064138636,0.620056465031666
,12,6220.46578013263,6325.78578415985,7359.94357028029,2.9958056633368,-5.24739524374581,7.37505083359883,-13.6820064030744,-8.99682842716902,-4.72644872423916,-25.4813167923694,-16.4085948393486,-8.87980611563307,1044.88550258729,780.246513401214,825.288410837212,-15.217410546813,-1.50083090888074,-32.147823188684,-0.0181130133769329,11.0851495597981,-0.628372059318281,-14.2365364166226,-19.5691054397748,-1.70001092486018,62.0398310292176,54.7880362996229,18.5360787189375,3.59580343143989,8.42359781052073,-4.26292044755428,26.2575929788209,33.0227759425616,17.5640557082397,23.4014008193935,14.1773969259175,-3.57251582020217,-35.4713642321294,-19.6984658533147,-11.4966436122277,-22.6098818927276,36.9524586573571,-20.6545633739534,26.4451237990934,-0.0214377869078817,0.404194385430856,32.2363248462843,33.4392833913698,35.9360657477682,-15.8319418599267,-22.1908813813716,-20.3897974610063,-5.19533128710646,-2.06629419445562,0.778801945376472,-37.4149878369608,2.14405906241336,-2.48715489236656,20.2380020329874,1.415607704168,13.3049221923957,-10.015795406448,-8.70937269488149,-9.81067988959421,-0.625731138357878,0.968092072936997,-36.0835927456155,16.4489455490584,15.3388227650648,23.3465132808142,-15.8277019705129,-16.6413994428513,-10.0306020945263,-10.1689358496888,-11.1440314445335,-3.48024633735713,-14.1646808675478,-5.26128482085005,-10.12811328711,-0.350806373131491,9.24372258141557,3.84136573097294,-20.6729449824243,-11.5830757757831,-25.0220596821646,-3.45342290213284,-10.159614521207,-3.01569623808882,4.29656080028326,9.55216345135341,5.55313206301616,-36.7634177468781,-18.0776521361586,-26.2760353531949,-23.8382291611251,-24.1301274049847,-13.7760948137566
,13,8958.6478859163,9093.65030396384,10253.3179491951,-4.75264142751621,-17.1370213383552,-1.87642057348057,18.385706474277,-11.6392824349787,-11.4082521596738,-22.884849448782,-29.5715455448253,-13.8441920219875,1880.8954737665,1452.46168220457,1527.68317862956,-8.5903483119464,-3.2976827611792,-38.1130069425508,-14.6632059399863,-0.296117234791382,-1.25333204180788,-22.6835340998905,-29.5515027294741,-15.4803477369551,148.06870803468,141.808164938832,89.1152361066788,3.08882244022516,-22.3977172438954,-16.7405778769362,24.4412481591053,37.4674527593406,24.4495158084183,16.0814683004683,45.9032946479238,28.8955956259779,-38.9585256297387,-11.9579591017537,-15.787513537839,-9.76525518511153,12.3891771077306,-18.9909438425111,17.7206917979038,-3.68356356349977,-2.73974631564124,56.6595789298772,48.8994113395165,65.6409284273723,-28.4771904776289,-28.4561147901231,-18.2311124547959,17.8051147333645,10.5970556605007,6.33161717823896,-38.1245944707498,15.3551723974433,10.7370341794713,57.3797321339116,39.7958384187914,43.7199185845384,-12.1673733044045,-11.5525168332333,-14.3678631538023,3.88722199018775,-1.04334283482603,-28.0643813394399,47.4201688467438,35.1284468638423,48.9144909817533,-15.3426623888645,-10.9737436141131,-20.7596584310013,-10.285533648911,-6.23375177551043,-9.66100692936834,-11.6293958374863,-4.53956654589456,1.62794536000547,18.0346345809721,21.0442730185569,12.3188546261463,-46.4021567444725,-25.3799617619034,-32.1318211479238,-10.075644133377,-6.8346097777594,-6.38760296447799,11.1199811369206,3.89565881143335,12.2321278898762,-43.7684867630987,-5.72286674926636,-29.8821236255317,-26.4491125135191,-28.8826870434514,-25.008230471909
,14,11502.829570576,11680.8710723544,13022.3527904208,-24.2862202649758,-33.278852328629,-24.6113096800909,7.52570329389346,16.1838758059585,-4.7438875885673,-24.1281336216034,-24.7785140112246,-17.9138889528713,3281.57368057443,2596.12965873304,2745.63772158704,-17.665456669637,-5.56820197255001,-27.4056414222223,-18.2826414281571,2.80037556822026,-0.938112591676145,-16.1557742349723,-23.5919488978552,-21.132323979421,318.457211611253,292.367517999935,224.554270012837,-4.9314524395877,-49.8841155755381,-25.654508162158,22.2368266575077,23.0363105344177,14.2045033662844,61.1872181643139,119.071398247726,107.908639090261,-28.8174968475832,-3.13920879035595,-7.46236920321644,88.7409154189754,2.62294123355059,-6.2516396291503,25.8399725202698,-9.8890641884891,-14.1869972448922,147.016985978617,117.467592436073,126.766050355856,-33.6138296857371,-35.6684626253427,-24.8116501487912,33.1973217461709,17.3223006080443,29.0440818244679,-27.2632607525065,45.0114176331263,25.8545577481245,151.104697070898,104.506856760487,101.632275645235,-15.1477105526164,-11.1011577409636,-17.455041390208,29.6332853044205,-9.06290984298903,-18.10519045412,103.383254598455,108.733637225136,127.940473617584,-15.1051015418643,-16.885444198846,-9.34512155532593,-11.3322664198504,-12.2233320228861,-10.6876376163309,12.6150052619441,34.5489849586393,36.2082898566186,69.0586368988861,56.044340402359,56.6171684884703,-44.990384152582,-35.1496446267456,-33.8422843326653,-9.90475540210991,-19.8979212959503,-9.48124291217391,27.9307363393582,24.6444809822524,34.2300206323434,-39.5816428739035,-26.4687988492096,-37.3895320017091,-26.9055659999576,-34.4786651378718,-25.1777947484507
,15,13622.6691030539,13863.3251065731,15298.1235792631,-16.5323889994452,-30.0139573951737,-19.6892798065683,53.170363892581,36.9822289537915,37.5098783644153,-33.2426572731201,-29.2512552822827,-11.7946999338174,5379.44920530274,4425.82596286423,4662.24172439377,-8.59901059067306,3.40523084167671,-43.0641756811292,-29.5130921934888,-11.3776907700749,-7.05296710390667,-22.1783991021157,-22.2558674308893,-25.1142480282688,616.029710142138,580.032931231869,458.938078626331,-5.56165033270554,-76.1297719481154,-23.4362740760398,11.4467310745677,9.35734166067687,8.17138980885557,141.996412566012,265.242410437482,226.604306842835,-4.77172629653342,15.6120062283317,11.5907544216807,46.2505224711895,45.8140772786246,43.3874913411273,6.5710797288657,-6.47347299495232,-8.87800930422964,344.846426603595,281.736108658692,247.949216299059,-36.0535425630551,-31.5507506263239,-26.0602217549686,89.5108849141234,69.5348020268848,90.0292331188648,4.9104267012026,71.994956153434,75.7843247377214,312.912376654953,259.443170101906,250.302570023441,-19.5129228439746,-22.7145657560959,-18.7119951868835,97.8483076478151,28.5327939282452,41.2891778087815,241.347068487825,232.919814464285,240.338741979915,-14.1688481460305,-22.7525258611231,-19.0069778561701,-14.5041453823596,-10.9420844924971,-10.6277191208546,48.5061563434556,73.9060540204209,92.4988102728021,153.078093228505,128.671931604329,128.686117075558,-50.9324469202174,-39.6953089901535,-21.9502822849745,-11.9092585408434,-13.0541124055635,-15.5422287270894,74.802562665921,74.7519688953898,90.6097511786829,-39.7190577871806,-32.4677515954118,-43.7337721886242,-26.9079120414717,-34.4021585106857,-29.7172879425152
,16,15148.8441209645,15442.6689449835,16903.4221948377,-22.2777878311044,-28.8443674404652,-12.75005686844,162.82378225627,115.738545361593,121.419295393693,-33.8943099551925,-40.8607176089654,-21.4740289772171,8034.40846062757,7106.68157716371,7453.50847110809,5.36128317531256,24.5729158546628,63.4126988980152,24.3459625810328,-12.443401715349,-10.5715370282824,-27.1932556502506,-30.4851485510972,-31.2349280582621,1173.86605805924,1092.82974137837,897.978007782091,-10.812283774244,-93.3045953579731,-23.2548806027025,4.09303053199164,4.45704515234229,0.367525676333571,340.578125213227,583.699758533126,497.389730450033,32.3662124003085,67.364282972645,52.8333629833169,314.287430428771,106.026563700731,149.1344930253,9.79539612976987,-11.641996448694,-7.82812805212779,687.734797387746,583.961120002741,518.668502629111,-37.6795691188672,-34.7820873556884,-26.6727425385352,219.019773010659,162.619859528917,207.788936966093,113.968136545684,164.191850112325,165.010137894611,658.948870144253,553.243197871512,514.957635201259,-21.459911926313,-19.8221057480232,-20.1282731361507,220.119146515644,139.282085867622,174.255430748919,503.285153305289,506.674652403926,498.976496630603,-13.9039066307878,-11.3430026496853,-6.48920505428941,-19.3034296858305,-18.4164380293387,-21.2253983893979,142.765634499969,188.121008943292,217.446145698763,352.50805325046,292.217300034497,293.190362704228,-31.5839813087023,-20.7890834650079,-24.1122474867989,-15.6416366209987,-19.7310362694898,-16.6958449413214,145.429259606981,163.452888693342,206.889230156348,-41.1527372031569,-32.5838742282294,-49.6018493066294,-31.4093136298243,-22.5415668100295,-26.4730608658601
,17,16162.3929948157,16497.0593414146,17975.0840703673,11.2835924424799,-5.93900682754975,18.9179632556443,341.754736264924,283.247679891365,300.026931005132,-31.1497084625062,-28.7271923713433,-20.5312762016993,10453.3515196436,9882.66384307578,10190.9919970698,60.0438673175067,64.7841790786488,111.088989422584,22.9428288802028,-4.16525587334218,-14.7810583635801,-30.0912279141448,-29.2098410359795,-26.7053290218764,2104.78917511464,1969.56146862609,1640.31384461653,6.07242458097335,-83.7746298155671,-3.95870261983328,2.47836057747827,-6.07767520599373,6.65745176079781,631.159217508219,1057.85672833997,972.551801448724,107.693306478365,149.751156822762,132.259163518987,502.654399070121,288.249549202039,376.78917189496,1.98973346545154,-14.409256736586,-15.562791030753,1281.24355474513,1099.17700431713,1009.43118717675,-30.5684554483623,-24.3750455131621,-15.2696293539184,443.152479846791,340.264881012241,426.042552105337,334.40759496865,331.114305077723,345.30228665395,1176.58665644854,1058.00003857092,982.945392526022,-23.7261386780146,-24.4444805124649,-21.9460465617831,448.081735360101,311.095563483388,417.67555155262,950.548733554442,967.619555146843,940.04016579672,-9.90396622757999,-0.201774348042818,-2.23811300490252,-18.1936740651763,-15.2284026492089,-17.3208752028422,311.036277764922,393.186994605187,457.954983356669,717.600120606585,585.624932025576,577.773794643352,-1.74812083648249,-4.30269141497411,4.8024478024754,-14.5977609284646,-23.5169112660433,-19.2881531885241,290.428520517831,323.237262707355,420.950370272021,-39.9887159097188,-26.3406928327104,-37.9945833427619,-21.1519818053703,-22.2324851168378,-18.3668377266658
,18,16813.9020183563,17161.7006566762,18644.8598849623,80.5461546912811,68.6573016433213,98.6326068977951,686.720412963245,568.90689868357,628.713836707106,-27.5419410787645,-22.5833268967126,-24.7692148828664,12387.5107501757,12401.3630434766,12614.8686729225,231.281816866435,130.080671270021,192.845216875362,5.62543220091084,-14.0071765602906,-12.5674837914967,-29.1414722873797,-27.9249323987342,-29.989612921464,3582.93139364278,3403.49474220961,2860.10666298986,60.2568929642093,-54.9998148095947,49.4133537175512,-2.78618892531449,-11.0011592775472,-8.89044746593027,1104.0169125852,2081.83791734242,1689.19459479616,231.855801045791,303.481442558133,263.390648180162,848.103953754528,590.874057679033,750.330155587573,-1.15984010937518,-7.14439440735532,-8.64537081399794,2146.28092993629,1950.3584039453,1781.91163479103,-22.1209959750167,-22.885554662409,-3.66762320471844,866.643925544235,668.455708837717,829.563714217067,706.290836111088,657.247370663501,647.899627244313,2068.37808193978,1880.158026665,1762.90067253086,-27.5573464556937,-29.5384111313215,-26.195958223012,876.687802978651,633.895167675077,862.725536283553,1698.56278272865,1754.64492957891,1689.82963715079,12.8193232465692,14.1693523218382,8.58773501419,-14.2038773449731,-19.4658563049934,-21.6896123562692,614.117104058676,750.159185590988,874.812048249009,1342.91052416864,1097.9161432984,1093.67561014404,39.1162949572717,28.1551205819269,24.9120162953268,-18.4574622814262,-28.6921615542333,-19.9861514148452,569.607622995611,610.297964699875,799.010780019785,-24.918395325627,-30.8534363734761,-26.3931159070025,-5.07935348272076,-8.22894726307004,-10.100382162268
,19,17262.1673537348,17621.0525984125,19126.5543968422,216.101898738683,186.237947477353,236.584729195001,1222.69809953986,1069.9648608749,1133.79311301746,-41.841872452238,-24.2189538894145,-24.3696818877161,13800.1316014864,14340.8146200878,14507.5572593995,381.504365194113,278.349642953163,354.956065657655,14.1130050338479,-17.3380518424656,-12.5341112878868,-26.6736571691508,-30.1348860067092,-36.6522470465306,5594.27103467911,5462.91352201185,4657.64695412724,120.375137399484,26.2322329052786,147.974990607458,-9.67301332078569,-17.2003564268571,-13.8953336041895,1713.76962506447,2825.47059062016,2667.16837563007,442.530352432488,558.030969334,480.739876910287,1398.90904304748,1107.28236830714,1347.97358701321,-17.9229434155968,-10.8212294861096,-11.2234779925066,3221.26895545869,3144.89038596976,2913.22322916055,-5.45642750395928,-5.56684605447754,27.242494054226,1487.99341604212,1208.92476550602,1475.95228294925,1321.06490509608,1143.86257959115,1186.03751756046,3249.77366562786,3084.61566485834,2920.78533388441,-28.532423450265,-30.7704588551624,-30.3624479277796,1569.68192631257,1189.06202041793,1600.28295961179,2846.77255085861,2959.7722806491,2820.36901520499,62.9048916809897,54.7436701326378,58.8259764818367,-27.0217701669199,-20.8299135536354,-25.4471163868275,1106.86296387622,1345.33992796929,1572.40852692377,2315.86647219789,1914.84668539596,1918.82711089373,121.095850969485,96.7981566367316,94.7862586920437,-22.3099889729501,-30.8959349506249,-27.6421358602047,1013.54197206681,1081.54252831236,1411.72291465456,0.705590789588314,-21.5516347297607,-6.15394408290103,30.2644752679726,31.2245024092936,19.7017538596656
,20,17563.0997225275,17946.1996664303,19466.0088440622,528.954049221396,469.41949259887,591.053851452221,2279.1679670834,2004.47737233554,2131.7711991562,5.58500713239209,5.31722707255722,0.192469167630406,14727.2293735952,15681.1384906651,15813.7373534075,682.006493973387,575.34817109706,710.139575422396,16.1527409164319,-13.6782488417575,-0.803719552154689,-19.0020577472169,-10.6376740151691,-14.8124040381826,8385.10199966536,8615.32853088715,7520.20911212558,431.034613734217,242.707278496136,374.829657405793,-9.18332160868522,-8.91079379727125,-11.3693633354451,2552.54360105696,4457.43934246062,4065.84283302519,873.120325524314,1054.31487737976,913.470999516852,2435.63232870003,2089.91690178185,2507.27151661452,-20.4051726673752,14.0328560816115,18.8486771228454,4638.83297701665,5002.04320239975,4718.59751562496,47.2800179499272,43.1000934052609,87.5026142791603,2834.04672427042,2233.64166102691,2725.34778699236,2498.08933186139,2148.02612643895,2227.01300435059,4958.96762460954,5004.03853376343,4739.25437224586,-21.0539415369622,-28.7261111760708,-24.3204447718808,2799.07949568578,2219.13601242927,2948.01997469871,4685.67878437836,4875.75551570142,4716.52832356493,155.036842774054,140.769432024663,140.255352846604,-25.8233135317614,-22.5275462244563,-23.8225327232085,2062.72162324006,2426.82097939883,2863.03420129586,4095.85568894957,3406.22105252227,3460.3629685093,289.158192384307,245.4179189812,230.742942264589,-19.185816138418,-24.8140027991276,-26.1252094299189,1870.62120408501,2024.24271061229,2610.59661897237,43.302260566551,8.45022267815148,52.3186791750477,100.554532818773,101.797413969008,83.7480319543065
,21,17757.8295481917,18200.0795275068,19711.5424467094,1048.33162898397,955.01922946593,1157.51004682357,3645.65867071627,3322.04272292027,3534.00461366371,57.5819742904132,44.7555140957293,30.2271951069952,15335.0073374198,16573.3998117032,16683.2171439185,1195.12520625152,1078.7728522586,1332.41419844803,37.4949760047812,-3.28066192712686,15.6906909555983,4.95842916025049,8.918821870594,5.04848374264839,10805.9539845097,11498.4122023378,10190.6628016922,736.040709449273,623.969004475688,779.735021534323,1.8234660554981,-1.93982044523091,-3.72810127025969,3289.00420654147,5421.22238011495,5095.40610561301,1575.42435939191,1891.00787166423,1642.50849919436,3782.26281907619,3441.15426481342,4000.37644234329,-10.9995211865762,57.5119888068984,61.5237285918138,5494.67137218507,6523.63373585113,6363.1952853906,121.965452400265,121.08192048808,176.549751838778,4491.55735410211,3703.38399248452,4470.88098205557,4108.68547201389,3613.66804510407,3783.8833159353,6375.78474886127,6740.05422791878,6460.90604669994,-11.9145931484154,-26.9741167933644,-15.5764955281029,4379.81197995324,3666.89551723124,4657.68076468086,6417.29892850386,6703.34553959214,6590.27795363486,334.599887603224,277.253043164098,292.755044761085,-24.9140962580395,-21.2334487219823,-20.788354930668,3471.64595742501,3915.59683195222,4635.45199980027,6284.45633269941,5358.73031241421,5495.89144702196,608.862875999543,509.692839088431,476.458089336978,-21.5124392574671,-29.8480822992196,-23.6428802889222,3190.22847388534,3438.0424066427,4310.23691710784,142.368658354863,42.3651190264864,147.279662975549,232.615951278923,226.796641316767,194.431653152848
,22,17884.1224659793,18361.1146439747,19869.4971498456,1771.65497160611,1663.06716050553,1968.38201556418,4990.18887543989,4715.63736884572,4900.42445834167,108.138683792709,103.82180185633,72.8965110560712,15699.4120990175,17214.0541319812,17216.469146584,1941.49019960912,1814.57618882483,2195.48141533291,50.9850468012746,9.56653236494822,46.1269152286177,37.2538230303171,35.5542567844141,31.4303261659534,12736.4527934375,13975.3563122466,12556.0966954949,1207.08818296066,1196.66731172782,1387.29087481489,2.6819461387222,-1.10259141311508,19.2424479483925,3713.69577065696,6135.26333532827,5877.06289236902,2591.88293195362,3054.391016796,2677.42349631269,5093.19864310723,4808.97803512572,5492.47960270988,-13.1317224762588,121.663194334914,120.083252517705,6075.82553214117,7721.2088260219,7715.04924402418,232.610958058249,233.570743929725,311.878754058302,6224.27284600125,5354.45486882125,6390.29681779461,5733.74394261143,5322.60732307522,5631.54796396902,7498.66260810014,8219.7678471881,7930.99339406124,6.4031394159083,-11.8988016484955,2.19935301175519,5882.74204413797,5132.17297595591,6270.0634456275,7842.62510248948,8193.47358448996,8168.64037490386,588.460318184933,499.947823030702,537.502751567596,-22.314938514427,-13.5821104631232,-28.7110378393454,5115.71244324704,5465.30376750506,6495.97314579043,8380.30352685067,7300.29430911011,7590.39804865784,1086.59448593365,922.851097053792,855.774985120688,-26.4470472543589,-30.1385248717979,-26.2422125015546,4853.83238573465,5210.27396642359,6299.52487771898,276.712571777543,93.2212316330679,305.840002942792,446.952327101906,443.287877810449,367.265557288264
,23,17988.9244136959,18487.8833088272,20012.3738564038,3037.28352033048,2915.33962896352,3370.54105726069,6532.86891761321,6471.34485691067,6551.21328217775,254.47723002653,236.780252912724,187.917483429062,15958.5597943194,17600.3555920456,17579.0071735152,3279.74439288955,3134.42453474989,3747.44563525773,115.43188597106,52.4851321723645,101.950585669895,104.378587246722,112.003249124126,115.166815674368,14167.1370063303,15869.0618697643,14419.0614648933,2095.23162375956,2284.24182223879,2464.3677171982,25.9553342415948,45.7237169322152,52.2744888249381,4154.64682668695,6610.41001745594,6389.90313979207,4373.39073855282,5071.98743536956,4498.92894938319,6428.93267199294,6318.88481486567,6909.28359775959,1.94714495845437,238.435933537786,250.37586618505,6429.75656738401,8494.64450785155,8643.14244677421,462.4086414675,447.307632379836,589.638154441309,7911.51224158314,7349.10278863076,8311.55164742597,7452.79692979687,7496.65333763721,8047.29527779092,8267.94280682061,9297.16031254568,9026.91199267846,35.9687978200864,3.92626767023285,38.8794054235696,7261.38438558409,6734.12255813498,7756.78276793615,8866.6352716555,9205.77679638985,9299.68190308494,1107.14266735324,914.043571991503,1015.82809135138,-13.5942931358177,-8.41803928244917,-18.782859740325,7091.25769895051,7063.13655376337,8274.01851437014,10331.8281697376,9160.61528686546,9614.40187038662,1968.61183674314,1716.76546368039,1612.6998674881,-16.9105468838025,-26.269447016075,-30.5239611410771,7112.55981247787,7559.55960673634,8273.92176957646,551.907439584965,222.19508013259,614.679831812443,840.978871846501,829.456503663455,735.387429191735
,24,18068.7805488632,18583.0899416427,20103.214859612,5058.50283719658,4993.55043424047,5630.95671689645,7683.46589850879,7839.57315548754,7813.55442617753,579.739841672202,518.3026117833,408.969732362999,16141.1927593087,17875.511454015,17841.5296126865,5556.52993663316,5375.8719350505,6297.29710751751,245.017583064229,153.415526878742,256.954616139426,242.617993480853,292.725372751039,272.355655649203,15169.3357802121,17211.8796258752,15750.0736601613,3724.93042234991,4173.14414362417,4356.744561379,109.609786709235,135.420494960734,120.197716671865,4510.12471437797,6929.18777266689,6705.8298655295,7214.0770715965,8080.17855577461,7388.8396064037,7366.65104939974,7400.72123680483,7890.25571185697,25.5756659315521,516.984722827997,521.477119200672,6661.8758190532,8944.87643683096,9168.66424097719,913.669533114809,883.849657467204,1124.00862387262,9159.718126689,8893.03950966289,9761.53431419061,8679.54749937179,9219.67420122349,9975.87717987765,8717.28889432422,9943.61136537888,9695.40845140754,93.9561718486202,48.4999700330281,101.37051583116,8190.40390497733,7913.6050140561,8747.82235465034,9492.40833390584,9788.2124530006,9966.32040997292,2086.08739589066,1753.45147287694,1928.88273264334,9.53635085826681,10.4920013306755,-9.68218045444064,8613.25386663142,8202.10575311956,9539.80027041824,11770.6688434062,10586.7022482174,11174.3638404737,3568.79676790898,3169.02214913522,2982.07646333259,-12.005267617742,-16.0266041857549,-22.3899849212567,8991.78616312596,9494.49081073788,9797.24068110365,1059.69085154582,444.59738017691,1214.25670302748,1631.44267948375,1621.73704015168,1433.78418982379
,25,18129.2276500944,18675.6719379103,20169.8839755927,6592.8135827208,6730.75271539988,7269.33253835879,8430.44781176669,8745.33382358032,8630.87846993822,1028.77938079857,902.911572993765,757.962319551339,16272.3686438563,18052.4241144643,18020.7776538568,7655.46052000559,7462.13955436488,8408.49287721559,438.046152398912,277.110320938427,453.191336516784,450.040474496263,524.63348749302,505.41920517342,15830.7759432169,18091.2993134323,16627.2970002127,5426.1506903454,5936.17371125688,6086.42617493386,218.895798296516,262.594857328748,251.24439945519,4795.28952798443,7174.31293258033,6912.67932834439,10019.7532913342,10923.4997270955,10214.2509249947,7920.45026707506,8043.91846053371,8442.90353733201,79.2046866421197,898.480356290122,904.977992116579,6847.94938872042,9190.87698180594,9421.2955179173,1529.72857688911,1471.63842726074,1861.2240291422,9881.03260494433,9884.10645670441,10607.6350654501,9389.43710540644,10346.8249279026,11250.3992711724,8974.99044511221,10249.9112138257,10153.1607563182,188.487844077365,108.169120431795,205.214036695174,8701.16275235568,8654.19027821092,9265.15155778957,9888.77044594061,10118.1145760482,10340.4060391714,3363.6743958034,2853.47528634978,3171.16506691622,40.8297492478287,28.6119978575562,8.06794908452139,9555.41616618628,8859.51204460259,10197.5598195012,12604.7367886525,11430.8862915455,12114.4145350248,5418.47962048345,4979.75699847557,4694.02616239951,8.44012109386222,-11.6652970469113,-11.3439446577449,10313.010555808,10860.9197752911,10688.1396063621,1798.49878276627,787.615308853554,2071.85694154462,2726.24856186034,2723.08279866868,2448.40774489648
,26,18162.930054115,18727.7416585863,20205.4683736519,7935.87363867036,8287.11669146863,8681.62073596924,8752.45378320329,9188.79524093637,9005.17988233953,1842.34427623609,1660.49050958178,1391.03224566663,16348.1305656359,18155.0116241639,18133.9812618622,9625.47777678611,9401.79866851095,10292.3772369683,815.454656065382,531.582542218544,853.811403586271,855.956745064882,991.766571970804,940.358765152466,16240.0065262662,18627.7386624519,17140.0700933537,7327.70127816258,7583.84367380571,7657.57614893802,431.757037188841,532.271565388004,470.667416360683,4982.29922733287,7309.66360589532,7022.4054361177,12568.426729135,13373.9393600927,12761.5924088231,8180.55687911881,8328.1574768004,8664.12931492415,175.231385507208,1609.76888495622,1616.90890165535,6936.57995656466,9319.30979122787,9538.21162570797,2644.19435431724,2532.51369097195,3174.4513024679,10190.0868603707,10356.487360736,10930.2101622149,9670.26839392409,10858.9701290573,11817.9892077615,9093.34896811898,10367.7348074379,10279.2086353145,349.41891092627,228.991939011811,401.587036996113,8910.65451463746,9021.47720143261,9445.45500661674,10128.441906396,10321.1154728253,10549.5368988882,5307.38680434914,4620.66409527996,5126.31220433109,96.8374494976388,84.7862544224663,40.5247713830422,9944.90245666277,9125.34982214221,10403.662440215,12961.4875205705,11791.2116174962,12511.3318787878,7591.59725584286,7425.71134310892,7051.86831103404,34.7034086591975,9.75372666003204,12.5808693252193,10993.5049937564,11595.0058873622,11071.829531966,3044.95057513391,1399.46147068297,3499.45061406403,4506.47599379218,4511.20368511025,4137.35095429275
,27,18206.6073584468,18772.943334504,20275.3741231469,9020.95278678124,9547.62784490833,9786.89884995833,9045.86563398811,9535.28794218691,9299.98122627296,3178.09013161077,2890.5200967922,2415.23043125377,16414.2395422364,18248.3201697438,18229.7678559573,11270.9467407989,10994.4008447729,11777.695973856,1498.62262745942,1003.89370479492,1558.98615241483,1574.22278665409,1810.37669110342,1709.58123305008,16541.4866222369,19045.4468569394,17533.8302282468,8876.77672630462,8803.20134249584,8819.08303975089,857.970546462457,1049.50568406351,895.273240966592,5153.45941190643,7449.02543335553,7146.1240199008,14724.8388323629,15362.4700583854,14887.6386892005,8459.20593439253,8622.10955462398,8919.82087963807,364.279908432683,2804.63746651556,2812.62965624909,7046.07315515772,9484.31128253561,9707.87698897865,4442.94854974384,4280.41346767957,5273.77166117612,10486.8732070248,10737.4572374433,11232.4281630674,9942.52310886303,11222.2972891756,12186.5331117393,9224.75028364809,10510.7993501657,10421.0991246821,640.381524959407,425.183214521277,724.942665577461,9153.73298826048,9371.07369452221,9664.66355625379,10404.316136929,10551.5306066654,10805.5086141711,7733.69896275792,7022.54423544075,7772.04926104775,203.144652308843,172.198984412011,106.532424690877,10218.9966435776,9388.4332604109,10604.2826791351,13216.9715572903,12021.8793989854,12765.6199271633,9473.63221335021,9703.64479916283,9267.48162797377,95.7721365805201,56.6844107829857,45.0215273154299,11472.5244313846,12136.5662895681,11389.5143649842,4965.50142285816,2436.27677642117,5626.37492484706,6951.10776044983,7098.99038113272,6551.63010517944
,28,18216.851673666,18806.5505479861,20320.0765711777,9741.58871403179,10359.6805199022,10466.8556148402,9229.74259933324,9768.84050851452,9501.76374600742,5356.92619854755,4934.01224728676,4157.59237811127,16450.3003510368,18312.0592782689,18285.6967601591,12322.4324039964,11984.1048695659,12643.2637388278,2802.73602504201,1898.92583192824,2905.84652315021,2905.78218407812,3345.31972791775,3122.56925083416,16744.1007365297,19321.4469003819,17796.571415963,9770.84281590782,9393.54640696014,9382.30821767218,1661.41333754148,2011.2229774787,1719.10746805703,5264.15149543074,7510.43929144599,7215.59445459453,16207.0212064562,16708.581720263,16350.3868831959,8666.98019978514,8839.06893861619,9109.01767456922,761.483763639539,4871.92855701594,4877.39583499922,7103.75384842845,9576.95761985501,9818.36740642889,7186.28038508327,7036.39071735952,8280.49982241151,10714.8904835655,11043.5779153929,11463.8640975226,10145.0843863387,11482.2413008462,12445.5478668738,9296.1720605423,10597.1366266657,10495.5182516787,1195.78213440712,811.861119303887,1356.16085065224,9323.23037124398,9617.79837080193,9823.53006333768,10577.354120668,10698.4974405701,10970.6282936074,9789.43138576378,9140.00648650871,10119.7267143797,408.723727302651,333.905211312248,218.598603762966,10424.5553432938,9579.6143254604,10779.6697205489,13370.355007216,12163.6844573856,12905.302873211,10691.113342089,11365.9182948702,10905.5095267638,202.349844478125,129.436806110855,119.377036955721,11825.8142196665,12530.799395254,11661.7084982835,7518.60958544994,4202.44568668394,8285.77668651303,9118.90620880689,9445.69035235677,9206.02959154396
,29,18220.8125615233,18833.2262536565,20346.5894098533,10238.6338228717,10884.1984577148,10920.4772200209,9347.65732618214,9910.09425708771,9614.6077382876,7387.14069749612,7051.26479355155,5896.89208485362,16460.6292029918,18351.8052829514,18321.837238272,12941.6019437064,12551.0310951671,13130.7234359159,4499.74415683373,3142.28934036239,4569.76145137346,4593.39850410915,5211.77883262502,4900.63216619181,16869.7622853276,19516.283669788,17975.1644906038,10193.8323502035,9639.10177792519,9616.66473003262,2764.69882927892,3288.66986309254,2843.20642496537,5318.58526130646,7542.91673018063,7246.64528216379,17176.2472255794,17570.6405543712,17299.0977450527,8785.14818764079,8973.53587998831,9216.2054174826,1323.86578475191,7327.2325879695,7320.27488176892,7111.13808472964,9616.6021021999,9855.46523009515,9853.6858665344,9784.95873478267,11118.2451017606,10864.7517181106,11246.2639354799,11623.7394988407,10280.0811857258,11658.9506913215,12598.6485414147,9328.30106041839,10625.8538289307,10633.9459648076,1999.53196165861,1368.28680524695,2265.4669105241,9436.20351690193,9775.88183852609,9919.84719803232,10692.6132065689,10791.1456137754,11089.3468210086,11271.3620488856,10788.4716724107,11925.8131876733,693.952527182877,575.787016610023,380.405824514697,10565.9042548209,9717.64268632654,10888.3757875474,13440.7227964178,12233.2369095124,12967.7272318526,11314.1819727434,12276.3883494452,11803.4629183137,362.282205086602,251.535410846319,223.301692818734,12070.8642681896,12809.1433115392,11834.3500483124,9812.37412047683,6353.77815668578,10618.3892449877,10768.4620384147,11286.011766755,11245.4755352699
,30,18221.3408863605,18849.6212762695,20343.8114025914,10559.7147631455,11231.3370876638,11197.5448345951,9383.57678964508,9959.1082596377,9664.99025930501,9188.67401520126,9016.13698611974,7527.52138445056,16462.3982100496,18359.8246347742,18328.9816254293,13300.789878912,12880.4811231057,13404.8317876208,6999.98645157469,5022.75846467574,6856.39917009743,7062.29252027958,7740.83628217245,7336.84536604206,16954.0374797319,19635.7101153284,18096.5966102183,10376.1950291039,9749.00112237031,9728.01702608467,4494.03256038892,5237.64819216274,4642.81615450283,5335.94411779855,7523.30448492288,7230.33379031708,17776.1592627599,18098.2684548869,17881.016911629,8829.18175863248,9011.29252127461,9250.05245081187,2319.56497312356,9857.79424804623,9827.04121154218,7088.80481148996,9597.31413554645,9853.40708571697,12239.3763321819,12336.2235174241,13550.4281452768,10928.7910460574,11350.4630407885,11698.6915388067,10326.7718210783,11734.1821965135,12674.8361320565,9318.75057751321,10613.9974375038,10737.6428247522,3361.42800635756,2340.29968958648,3816.2016632641,9477.37900299848,9836.45945238606,9943.85116229791,10742.6360529412,10839.478043773,11132.0217403317,12114.8501767222,11752.6077344115,12986.5943674306,1210.89382154568,987.596720246109,671.539317555118,10623.8799635093,9764.03076368978,10927.0306153309,13420.3432119481,12233.4152452194,12963.7672044466,11558.4856876652,12647.3827215581,12158.5238034777,645.97291615323,445.355340115572,421.145062221116,12211.7873700518,12948.8142246042,11925.4799390259,11646.0593446035,8921.56232776403,12404.7398995931,11638.8782893356,12303.2758153895,12430.9108634585
,31,18239.8357709484,18839.107387821,20357.2849100282,10801.8215925998,11491.0110255608,11429.3537595505,9424.29433267649,10013.5787958144,9702.83642713907,10490.1428945081,10528.9427569727,8765.18394790551,16469.9502174862,18371.0472081426,18338.7648858194,13577.408542454,13142.6793230891,13646.0746696496,9397.58567353973,7381.9652314456,8955.65360007737,9432.92727355654,10085.7982422413,9591.52877319964,17033.220878103,19731.4121549576,18176.2825179049,10567.9900344772,9894.94692770067,9869.42625008776,6814.73340110729,7669.74729811421,7064.93729633016,5353.03932270545,7514.94639266741,7224.21196315267,18200.0635529852,18476.3049697519,18292.8858132259,8862.69141852239,9044.59701476667,9282.48558355629,3981.77232100763,12209.9398557522,12138.9907428573,7066.36270234453,9583.12399424502,9845.5178686152,14164.7370769044,14457.5151605182,15461.1846520577,10993.3376399413,11434.9482213388,11759.3918403559,10358.4777980517,11792.240962162,12721.9396844023,9308.44157209675,10606.6005310913,10738.730863424,5506.60145423835,3968.6449750273,6197.77502107903,9532.63107854677,9896.66122831356,9978.34691771397,10798.7114480734,10886.1087823755,11185.8196383373,12651.2949600818,12364.2831103805,13649.8521042558,2135.66634264767,1725.81324496858,1195.45498388829,10669.5151041753,9812.05222555267,10949.6782524514,13393.9412149179,12225.0819576281,12946.3401674851,11772.9508401446,12897.2113898176,12382.1101950023,1164.81707414202,799.225964911603,747.373995188759,12294.4398630315,13053.0690424345,11979.6055077289,12959.5339656446,11199.4102095961,13644.6707463619,12103.5121263279,12831.293844735,13047.9138198555
,32,18248.4135848447,18837.6315666129,20360.3048532902,10966.4372609903,11684.4416956952,11580.7704924767,9452.23823452386,10050.5407736618,9745.34217896748,11269.3361485449,11462.6334111403,9509.8842197938,16474.2164578154,18367.8050482499,18335.0756864494,13773.1653199076,13317.6977561005,13819.4607768004,11394.6451882346,9462.85128493211,10606.5985614394,11448.654187834,11973.3223019709,11425.1613508804,17094.435979249,19806.0731183231,18249.1659450327,10714.1667046559,9999.85329335901,9986.29100026953,8935.02245332779,9826.25555214605,9338.70199624907,5356.5574655559,7492.82714280853,7213.60183005629,18496.2130023928,18741.8744446893,18580.7794698844,8895.27271751176,9062.8204454834,9304.98156903635,6255.63724638034,14016.6579828334,13897.0688509584,7056.66551112357,9584.30716442685,9845.710362573,15512.0839324839,15978.7756568462,16780.9225530218,11047.2106991539,11496.8754799191,11811.4963982446,10366.4797027274,11830.577535765,12756.4986600798,9289.78323348053,10602.3412489618,10733.6963558711,8290.83713290617,6342.56143358476,9165.25126116025,9572.76361635343,9941.28928569489,10006.4391330886,10840.6387135238,10914.3096173252,11220.0323614637,13059.6709514777,12776.1440688062,14113.4759282874,3643.87889227532,2915.35079972152,2069.65690432056,10694.9398917245,9843.43377285524,10973.0051736351,13360.689564956,12200.5092723984,12933.2708453869,11957.0606562057,13129.0186519435,12602.0275287983,2045.61199901298,1383.39158065612,1321.67111623838,12356.5853980047,13115.4946223531,12044.0045916408,13803.0343995144,12949.0231275251,14414.3324770371,12388.4179234731,13117.287409438,13378.5715808042
,33,18249.8114071507,18830.3789911528,20378.3360766036,11053.3235426267,11785.995484027,11680.3677076924,9456.77253819314,10064.0943823015,9749.98348270944,11694.7831272531,11948.0536085382,9888.98565738026,16465.5780044079,18365.5551478213,18320.7307573239,13877.6487108143,13419.6606564117,13919.9172796272,12667.7302830131,10995.6995591086,11603.1296440053,12838.0995311289,13206.0843369335,12603.8359842527,17149.9190745035,19848.1873295185,18287.7482635945,10789.4281225763,10055.4858840594,10041.3142087531,10590.7157931019,11409.141441197,11169.9339073736,5345.66772559167,7477.39248549384,7196.76127492641,18694.1953642032,18930.5328868834,18782.492199352,8904.76869234081,9064.29867230256,9303.01111132437,8783.00634825874,15185.8073012939,15025.6465082316,7024.83049887437,9560.79565241131,9823.43825929398,16389.8043306786,16980.6608998519,17639.1265170793,11079.0724485706,11532.4302866426,11833.2870252,10357.0927836902,11834.7646581986,12755.6762492818,9263.27589955512,10567.7085959926,10718.7048536494,10942.5485211844,9321.77457090666,11913.1144101266,9599.3999723509,9968.86371133995,10018.0566468719,10846.790535226,10919.1020326385,11242.4278736487,13355.274788036,13088.3834068208,14460.5051932915,5877.78649099008,4802.24784914017,3527.70742637038,10712.2872071873,9856.49400546617,10973.1235406568,13333.1514912219,12170.455255466,12901.9620965012,12088.5022577722,13296.4901155006,12760.967474668,3475.76169855157,2379.22500665025,2296.31210280338,12371.0903955049,13144.4587098921,12073.3817005648,14324.762602017,14065.7701420397,14882.8335761224,12597.1812747379,13324.3703317873,13603.4037016418
,34,18235.605098086,18844.3611951803,20389.0623588777,11101.1921729094,11857.4956895485,11736.3009778668,9439.42949568106,10065.7457667943,9746.8604326219,12031.5800103493,12271.2305162309,10136.7554713135,16441.8194356747,18345.7885077882,18295.8211402754,13943.7783146302,13473.0940671366,13976.0772550659,13381.1056138139,11926.1228944758,12149.7812436533,13736.0161192878,13963.099530159,13351.7990689756,17171.3645640967,19888.4388259831,18325.6632717723,10843.5890921095,10085.61552236,10078.695454851,11603.2964099001,12359.0626729187,12333.9396198626,5318.5278226221,7451.46996566772,7165.11798861167,18844.4465461797,19063.5271560374,18935.4187998557,8905.33324251668,9064.40554283935,9296.46011497312,11005.5327632244,15904.5037038329,15724.6857900429,6982.43308097878,9545.94062384634,9806.77630100211,16977.8731456264,17641.6645811917,18206.3906171146,11096.7514904021,11540.9592892877,11849.5267168497,10335.6947298012,11827.4893843723,12743.2971507921,9243.92765134491,10536.2582791511,10701.7134344763,13220.6803996356,12071.0326320228,14201.7105960662,9619.20685266124,9971.46473422213,10022.0921292764,10849.0212505717,10914.6476561019,11254.7659136144,13575.38901686,13320.649189538,14705.3163673242,8664.24281884722,7489.93065462893,5687.96549393486,10714.3152700212,9862.76579268823,10979.039210398,13291.9139003271,12136.147588892,12870.1077461101,12170.4879882317,13406.0220231039,12868.0626175209,5572.26560537288,3964.20461375482,3855.72754871536,12385.7241831648,13152.7965883265,12083.0991290536,14689.7568976174,14750.3460960176,15208.8362797919,12726.8979391424,13462.1898650065,13771.9149272779
,35,18237.9333636735,18851.6652826519,20389.323543587,11125.3076257263,11887.1490651631,11775.4985658055,9423.36077639353,10042.0283483982,9721.22764809781,12285.7507957463,12544.2702275047,10341.4382246043,16423.4643962674,18327.1219404344,18279.5433625937,13972.732658467,13509.502685328,14008.5127614546,13773.3682410939,12445.530265147,12457.6004680684,14350.8785476641,14479.883349559,13851.0981334179,17187.7537783508,19909.4119691014,18356.9795696447,10882.196996747,10104.9437067689,10105.8615921022,12131.5079535343,12816.3444088596,12944.4988136237,5294.26983258706,7412.16840398049,7138.93281568712,18946.2964786711,19167.2534719221,19050.1940234434,8888.92705523984,9037.43308399581,9286.04693983745,12721.1187540866,16362.3594798397,16165.7274705496,6936.57304187007,9507.31856380902,9784.40869682167,17374.757324245,18086.6066409937,18575.450436129,11100.4262681432,11549.6282869895,11862.347722024,10313.4144799293,11806.9430793205,12731.6142646653,9202.63382280161,10511.1604805179,10675.8330008791,14891.6331930311,14344.5854672854,15836.4449386459,9627.21911568518,9972.24924894089,10008.7373342172,10838.9750000749,10904.427884647,11259.1958988957,13732.0722891404,13483.5915393221,14890.1872950401,11269.2052174237,10217.5275394266,8577.13873207902,10709.4797071165,9852.58235944405,10970.2225057265,13243.3228297999,12098.642621088,12829.8864004371,12230.9769474015,13486.6553584297,12943.1268238858,8252.65625346025,6329.18562421505,6147.82392323412,12386.8585627281,13135.8628392001,12069.3241079937,14950.1079329311,15188.4775256195,15438.532815221,12780.6203066628,13538.5938785024,13860.3227309784
,36,18224.117724064,18865.4093938387,20383.6553383413,11146.06735134,11906.3012121158,11794.6056318514,9399.21740994212,10019.5723409494,9699.74140095093,12475.944479394,12755.6925275073,10492.2598518949,16407.9990919035,18298.2905720885,18258.7345862679,13982.01032919,13524.7003094845,14018.0468085817,14035.5061372459,12784.4210193798,12684.1616042579,14783.7710689429,14847.7646903644,14221.9169168576,17189.9007208188,19935.0957911707,18367.4383605271,10913.2213020153,10110.8618456971,10130.9017238396,12393.7012527952,13064.7339386995,13237.7349082222,5260.70148084599,7372.0268775874,7112.45806691452,19020.9562489242,19239.9193894264,19135.9285914444,8871.12725820799,9006.19715646535,9260.51101880713,13909.5244779511,16669.9832541966,16477.1836384043,6877.52911277169,9479.79868034849,9754.31968667245,17654.6905866935,18395.6235544401,18837.6360664967,11102.4998776082,11556.1524762242,11859.6585121121,10275.9537368078,11787.8486038585,12708.9338372081,9166.82443061213,10479.7604002269,10652.4015238926,16014.8666901634,15986.7874892698,16924.5699927076,9634.09193737021,9959.09764479516,9995.04485859526,10827.2605869643,10892.7852372406,11251.4035421971,13842.9663593824,13598.6184704788,15011.8786189054,13440.2660849761,12731.2198461324,11320.0592227675,10691.4759962787,9841.29762531232,10961.7905544887,13182.1561739305,12049.7445654937,12786.7935250029,12272.7780739068,13537.3683871346,13001.6304287091,10732.7006448249,9348.36102942218,8982.16034876842,12368.2601849459,13116.194666012,12050.1453755152,15124.3714193283,15476.6545452387,15588.1045695087,12810.0355462921,13578.2815265426,13921.5880523919
,37,18209.2181148786,18858.0355381043,20371.8422404906,11152.8150296357,11909.8094982106,11797.5627836249,9384.377595355,9983.01285246352,9668.35542783887,12602.9394183456,12893.2582981724,10592.470388949,16384.2598826949,18275.3933104893,18234.3267570606,13976.0623178405,13529.4102997662,14012.3775530355,14193.4313110824,13014.9294300439,12831.7315094543,15086.1843980733,15108.2369412374,14451.7618458557,17214.9446735938,19944.7728841918,18369.4145242929,10931.1064850562,10107.9599149954,10147.4464297694,12544.336738874,13210.6312057307,13416.2488127473,5238.66481859521,7317.17819412403,7078.16828642548,19080.1747158049,19292.4553993895,19192.4377992209,8847.92661966262,8960.41773301495,9227.65336421083,14654.1394494996,16896.5318753375,16698.1995582662,6833.60872820481,9435.94724209902,9724.00303688869,17844.1619597154,18619.8423929857,19012.5174897785,11096.6485414525,11546.9384796109,11851.886269567,10240.8911415779,11764.4433443476,12686.129638654,9115.20035347773,10442.8891715098,10609.3945623409,16754.0384954638,17077.8859542261,17626.3132389307,9628.88676233492,9947.78694684589,9960.11623828221,10797.4111708284,10867.5911622171,11232.7783650924,13913.513811425,13678.9119993454,15095.430680805,14989.9352044545,14682.6505635327,13657.7399007924,10675.078944611,9818.15353303959,10945.4985589877,13108.9070343736,11987.3469562013,12739.2475704919,12308.4737062396,13580.3257579294,13043.2069415172,12792.8770347358,12161.4626604654,11543.5799569716,12354.2726487942,13091.4967193593,12045.4405210491,15225.5228258729,15670.0138483745,15682.5463688401,12824.526406467,13595.8467382296,13952.873719496
,38,18183.3878858815,18858.6589313194,20365.3483402067,11136.239913868,11903.9563883534,11772.928883006,9349.87943391857,9945.22094879957,9634.91290204068,12659.892323693,12965.7527356789,10651.4871103139,16350.0321623551,18238.8172448591,18192.8434072351,13950.7597314808,13520.021219259,13996.1126214767,14284.7869862267,13134.6321944517,12925.9162453227,15260.4729449079,15256.4649232418,14580.0607041381,17211.3538193638,19935.2973145086,18345.7054702961,10920.5489152449,10085.7127530643,10130.7370171192,12611.9264120788,13290.8887212219,13489.9898381315,5187.71806160749,7260.08311404707,7017.09587705292,19123.1984001039,19317.7221093187,19222.7151863734,8802.65399496073,8910.15795073887,9178.92297146983,15098.8083556128,17035.591646549,16838.9993040446,6769.28334621963,9378.97365019416,9671.14847168442,17965.3289312122,18775.1686062763,19148.5570511381,11078.2311254843,11517.6729183383,11822.4431984777,10184.3523588931,11733.3322443767,12642.2229517406,9079.59133981844,10382.067380625,10577.7843625381,17228.8961071334,17781.5298269152,18067.8205799969,9611.89700975734,9901.92077502601,9919.20809749243,10748.1443112562,10830.6513424398,11195.3056679895,13951.5857952973,13728.0589469916,15132.1342451298,15975.1848708324,16012.2424875906,15319.2442821551,10641.5144497854,9785.29776084938,10910.9790959358,13029.682452921,11915.1458655181,12681.0886371614,12324.9587572973,13591.101725997,13059.192086914,14222.0432821415,14474.8457888374,13573.2642560599,12322.9146839766,13053.1304079481,12021.6249098683,15281.7828312347,15763.1382547438,15723.9183739349,12818.9259189691,13596.9138536162,13951.9877440705
,39,18180.932344927,18845.5036661036,20363.7611658962,11111.1137070403,11901.2769916276,11767.8715081536,9322.67557385553,9905.06363080131,9598.08433709944,12725.6725717033,13023.5708716339,10704.6308376675,16319.0297190004,18207.6955771122,18163.5434503363,13939.8063167034,13514.7039200421,13985.4555452773,14380.2890414528,13242.2866573069,13011.3032735888,15422.1387458648,15389.1688883549,14704.1537830033,17220.3153042487,19927.2866802148,18345.5004136159,10923.8095211461,10070.0907256448,10128.6704763985,12684.0960614667,13364.0802930704,13585.9395265667,5147.4928334716,7210.76584459969,6961.37044613141,19151.793207519,19342.0859348212,19243.9491662617,8765.02529653563,8854.5129205315,9152.37626210974,15391.4021539736,17153.0314613544,16943.5550850065,6728.85634774709,9319.85652602975,9636.01732647107,18063.3795501629,18897.8726849701,19243.5419985056,11064.6540334671,11499.8249779535,11808.0806732503,10145.6334653733,11702.327259974,12617.8416809721,9043.45997346993,10335.4754603396,10534.0642836761,17556.6362292261,18264.6981969625,18386.3425545075,9598.04483938665,9867.62788793599,9887.65253357518,10711.9130211281,10793.6691795032,11171.5881500123,13999.183110133,13762.2984176724,15177.1944211626,16624.0895072094,16900.8264208297,16455.2224017481,10614.2461450275,9774.93259478078,10884.623996106,12950.2259391794,11856.286470969,12628.331731535,12338.7837011032,13608.5237156999,13072.4070573153,15188.3992662382,16185.9866017537,15027.9535019078,12314.3363924576,13019.5356759122,11994.6096211087,15339.2165328418,15840.2936043252,15770.2599189856,12825.13140501,13603.4610975567,13955.1814077586
,40,18189.6006775373,18833.4964169893,20371.3912323416,11092.1694412663,11902.6494923453,11779.3420996719,9289.53499233435,9859.66322555609,9561.97896015502,12805.7888827616,13092.6107250575,10768.4026044105,16302.5655316874,18183.6771376628,18145.325833259,13937.8303468652,13523.8216116953,13982.3600287403,14495.7670614176,13367.3684018669,13109.9442186701,15575.6941611089,15525.5473533844,14849.7454204177,17220.4637498046,19931.3839216929,18354.1295304455,10949.1040587426,10061.7308572899,10138.9941340295,12779.1779386525,13460.2464926781,13701.790007286,5103.35224528391,7188.81843622024,6921.21324602843,19162.938714057,19369.2309607329,19263.6725713308,8736.6040922402,8793.40526551687,9128.85839593873,15633.2277555713,17246.2522601143,17031.4636425883,6690.67175442406,9259.71085787952,9609.19276150259,18158.7703365079,19002.068206018,19320.4760767691,11059.8511542434,11514.4651446859,11804.1903314085,10114.1320351751,11669.6088974717,12607.8358270165,9011.31642696004,10288.2650399465,10492.3803721511,17814.6564767481,18646.1275794626,18661.305553695,9593.06037477081,9841.53246779592,9878.72368197048,10685.2531374218,10773.93690063,11153.9273650728,14066.4855061614,13794.840419184,15229.6191824348,17112.0316520567,17559.7136766995,17324.6613247793,10594.1365327002,9784.8569097012,10860.6607800983,12887.5707451563,11817.7673674461,12585.4256253544,12358.6986534041,13633.3599288707,13098.0243319939,15911.4667317569,17492.7997741441,16125.558271323,12313.3240407474,12985.8650711864,11957.7970461289,15405.5678467633,15904.5348885524,15820.1667519677,12842.3852240566,13622.5891355733,13967.7612292505
