,Temperature,A1,A2,A3,A4,A5,A6,A7,A8,A9,A10,A11,A12,B1,B2,B3,B4,B5,B6,B7,B8,B9,B10,B11,B12,C1,C2,C3,C4,C5,C6,C7,C8,C9,C10,C11,C12,D1,D2,D3,D4,D5,D6,D7,D8,D9,D10,D11,D12,E1,E2,E3,E4,E5,E6,E7,E8,E9,E10,E11,E12,F1,F2,F3,F4,F5,F6,F7,F8,F9,F10,F11,F12,G1,G2,G3,G4,G5,G6,G7,G8,G9,G10,G11,G12,H1,H2,H3,H4,H5,H6,H7,H8,H9,H10,H11,H12
,65,59.5311778386399,101.464988808182,64.6085512481782,-0.43883295954538,-3.56035117704323,15.6718806599979,5.83022277008058,13.0035733142927,-14.8192295455856,-14.2396564760566,-20.3832965423958,-39.3781686587699,71.3601630000935,75.2094890643284,26.2056566484675,36.281703208092,22.3841052422363,27.8134200782097,19.964597407265,13.8093925302023,-4.75245303508154,32.3949796763577,36.6288831784755,8.8037837202628,59.6705609890564,90.2567418815606,101.941305860205,8.33665926851472,-42.414370121367,16.3071778632134,23.1136311025407,38.5941786485832,18.1861545445336,7.12114755282892,-50.4258367260595,-19.3804272958669,89.3644608533768,98.7963896529154,94.378128295366,20.8488138140401,34.2330628630621,-28.9075707320994,-24.3204769619033,-12.478225614831,-5.98652473103766,-32.7297401997498,-37.5121469750306,-53.5956047110471,90.3354472450837,119.839386511361,98.4339422796206,51.3655067581349,-27.5424901890719,55.9115309387321,-23.2948475750677,-10.2377276231637,-8.73729218179187,-44.169491566407,-39.8363221131044,-84.8965041479846,30.0303573976057,108.969005657719,117.186355911632,72.6976607520255,52.8066832413601,54.8788471848793,27.0675636599485,17.7338379465014,34.5418015776572,32.102259380626,24.1220489694851,6.9038113285842,87.3873629872323,112.617569529163,110.560930870381,68.3909739261339,32.8291347491418,54.5225722069772,54.325688036683,37.1617759727451,47.9552639889903,-11.1585953505382,-20.4707414209033,-32.3536725452909,101.913083273446,118.992746923037,123.773812739252,-8.90986329158295,6.3190552200208,1.0386349870746,89.766480471023,77.7068389359642,66.6237371563507,78.8625338063257,65.8575733270222,16.066790494519
,65.5,128.984218650383,219.840809084396,139.98519437105,-0.950804745684763,-7.71409421692488,33.9557414299939,12.632149335172,28.1744088476289,-32.108330682101,-30.8525890314559,-44.1638091751856,-85.3193654273391,154.613686500207,162.95389297271,56.7789227383469,78.6103569508687,48.4988946915146,60.2624101694501,43.2566277157362,29.9203504821035,-10.2969815760048,70.1891226321031,79.3625802200249,19.0748647272376,129.286215476288,195.556274076716,220.872829363778,18.0627617484502,-91.8978019296296,35.3322187036238,50.0795340555032,83.6207204052621,39.4033348464905,15.4291530311293,-109.255979573126,-41.9909258077105,193.622998515649,214.058844247983,204.485944639956,45.1724299304224,74.1716362033017,-62.6330699195478,-52.6943667507862,-27.0361554988026,-12.9708035839144,-70.9144370994563,-81.2763184458981,-116.123810207269,195.726802364349,259.652004107949,213.273541605846,111.291931309291,-59.675395409658,121.141650367258,-50.4721697459795,-22.1817431835202,-18.9307997272126,-95.7005650605502,-86.3120312450601,-183.942425653968,65.0657743614843,236.099512258392,253.90377114187,157.511598296054,114.414480356281,118.904168900571,58.646387929889,38.4233155507513,74.8405700849266,69.5548953246903,52.2644394338845,14.958257878598,189.339286472335,244.004733979853,239.548683552494,148.180443506622,71.1297919564754,118.132239781784,117.705657412814,80.517181274281,103.903071976141,-24.1769565928303,-44.3532730786192,-70.0996238481298,220.811680425802,257.817618333243,268.176594268379,-19.3047037984329,13.6912863100456,2.2503758053299,194.494041020554,168.364817694587,144.351430505426,170.868823247039,142.691408875213,34.811379404789
,66,119.062355677273,202.929977616366,129.21710249635,-0.877665919093488,-7.12070235408055,31.3437613199944,11.6604455401589,26.0071466285808,-29.6384590911703,-28.4793129521131,-40.7665930847866,-78.756337317544,142.720326000194,150.418978128656,52.4113132969355,72.56340641619,44.7682104844816,55.6268401564153,39.9291948145255,27.6187850603997,-9.5049060701549,64.7899593527109,73.2577663569464,17.6075674405274,119.341121978112,180.513483763126,203.882611720407,16.6733185370308,-84.8287402427381,32.6143557264218,46.2272622050796,77.1883572971651,36.3723090890712,14.2422951056578,-100.851673452116,-38.7608545917324,178.728921706753,197.592779305827,188.756256590725,41.697627628082,68.4661257261246,-57.815141464198,-48.6409539237989,-24.9564512296674,-11.9730494620749,-65.4594803994946,-75.0242939500595,-107.191209422098,180.670894490168,239.678773022722,196.867884559243,102.731013516272,-55.0849803781498,111.823061877469,-46.589695150135,-20.4754552463301,-17.4745843635806,-88.3389831328154,-79.6726442262056,-169.793008295971,60.0607147952196,217.938011315439,234.372711823261,145.395321504053,105.61336648272,109.757694369758,54.1351273198939,35.4676758930013,69.0836031553167,64.2045187612521,48.2440979389735,13.8076226571638,174.774725974462,225.235139058329,221.121861740764,136.781947852267,65.6582694982849,109.045144413954,108.651376073363,74.3235519454902,95.910527977976,-22.3171907010742,-40.9414828417989,-64.7073450905814,203.826166546894,237.98549384607,247.547625478503,-17.8197265831723,12.6381104400421,2.07726997415421,179.532960942054,155.413677871927,133.247474312704,157.725067612648,131.715146654043,32.1335809890397
,66.5,119.062355677289,202.929977616363,129.217102496419,-0.877665919042556,-7.1207023541383,31.3437613199935,11.6604455401643,26.0071466285235,-29.638459091188,-28.4793129520867,-40.7665930848025,-78.7563373175262,142.720326000187,150.418978128711,52.4113132968787,72.5634064161463,44.7682104844835,55.6268401564334,39.929194814466,27.6187850603892,-9.50490607016172,64.7899593527245,73.25776635698,17.6075674405452,119.341121978125,180.513483763089,203.882611720396,16.6733185369967,-84.8287402427491,32.6143557264086,46.2272622050941,77.1883572971005,36.3723090891003,14.2422951056074,-100.851673452089,-38.7608545917324,178.728921706699,197.592779305824,188.756256590739,41.6976276280488,68.4661257261732,-57.8151414641879,-48.6409539238298,-24.9564512296829,-11.9730494621053,-65.4594803994955,-75.0242939501013,-107.191209422087,180.670894490167,239.678773022689,196.867884559267,102.731013516314,-55.0849803781366,111.823061877513,-46.5896951500636,-20.4754552463469,-17.4745843635669,-88.3389831328009,-79.6726442262434,-169.793008296005,60.0607147952428,217.938011315461,234.372711823258,145.39532150403,105.613366482683,109.757694369719,54.135127319912,35.4676758930214,69.0836031552594,64.2045187612584,48.2440979389735,13.8076226572202,174.774725974528,225.235139058343,221.121861740798,136.781947852215,65.6582694982817,109.045144413904,108.651376073386,74.3235519454879,95.9105279779455,-22.3171907010601,-40.9414828418735,-64.7073450905627,203.826166546884,237.985493846033,247.547625478531,-17.8197265831614,12.638110440033,2.07726997415421,179.532960942013,155.413677871888,133.247474312713,157.725067612638,131.715146654044,32.1335809890907
,67,119.062355677203,202.929977616417,129.217102495923,-0.877665919429546,-7.12070235373039,31.3437613200008,11.6604455401539,26.0071466289828,-29.6384590910334,-28.4793129522941,-40.766593084692,-78.7563373176349,142.720326000217,150.418978128267,52.4113132973371,72.5634064164542,44.7682104844612,55.6268401563084,39.9291948149562,27.6187850605106,-9.50490607011898,64.789959352629,73.2577663567117,17.6075674403614,119.341121978023,180.513483763405,203.882611720488,16.6733185372823,-84.8287402426668,32.6143557265436,46.2272622049863,77.1883572976008,36.3723090888725,14.2422951060203,-100.85167345234,-38.7608545917324,178.728921707115,197.59277930586,188.756256590671,41.6976276283308,68.4661257257962,-57.8151414642589,-48.6409539236074,-24.9564512295215,-11.9730494618652,-65.459480399526,-75.0242939497753,-107.191209422163,180.670894490187,239.678773022951,196.867884559087,102.731013515959,-55.0849803781975,111.82306187714,-46.5896951506311,-20.4754552461918,-17.4745843637093,-88.33898313293,-79.6726442259492,-169.793008295741,60.0607147950359,217.938011315296,234.372711823307,145.395321504229,105.613366482985,109.757694370015,54.1351273197874,35.4676758928613,69.0836031557506,64.2045187612111,48.2440979389658,13.8076226567769,174.77472597405,225.235139058222,221.121861740534,136.781947852613,65.6582694983199,109.045144414292,108.651376073221,74.3235519455025,95.9105279782025,-22.3171907012024,-40.9414828413019,-64.7073450906955,203.82616654698,237.985493846354,247.547625478309,-17.8197265832109,12.6381104401185,2.07726997411328,179.532960942309,155.413677872197,133.247474312633,157.725067612729,131.715146654066,32.1335809886755
,67.5,118.51639267468,204.233932588066,130.795403131729,-1.48547991707801,-7.27815934540422,30.7931410071774,10.693409545755,25.5744414182127,-31.5744230458654,-30.7490906427447,-44.0585312176868,-82.0650181473166,143.70216848119,151.030938896532,49.8622619515113,72.3927354915008,45.1457928534132,54.9399668825945,38.9605566514556,26.9981871687537,-10.2658152614545,64.3464731239192,72.2554261444898,15.6253383595799,120.251272141406,181.376441412106,205.397381796108,16.3512898886147,-82.9844119766649,31.7362975516512,45.3813769015155,76.7822325824313,35.7684273255054,13.1158439275318,-100.222661419728,-41.5682367343966,180.442953318916,198.21113029284,189.621234970144,40.9039901189299,68.2162362596555,-61.6527838110978,-49.8361799831596,-26.4618216566028,-13.1631374225294,-66.7451055681718,-76.4337639374871,-109.511573675636,182.237742930039,241.043468386508,197.585391248045,103.155339454504,-52.6738932891922,111.872492538732,-46.5562347049377,-21.8928242642792,-18.4754968200918,-89.4133912420748,-79.8181711410921,-168.73319797462,61.2700987796197,219.100259298159,234.670769290517,146.059989813109,107.404728965168,110.424369900921,54.2850313346385,35.949827496017,69.8542154080064,62.5062472116847,47.1347134414837,11.9859031109468,175.599275623773,225.521646820898,221.502041572859,137.835027442124,66.374301556385,109.739957651463,108.619111841997,74.2542952054887,95.7907757936946,-22.4507112826905,-41.1985109172415,-66.1175029079654,205.163344908584,238.630583461553,248.559985006787,-17.3378447448818,13.6471219308278,1.50039008734939,177.014019980529,152.526582517829,130.359015316619,158.638657142067,132.898090954272,32.1320759688761
,68,121.041336425477,196.387716863629,120.577418990808,1.84901717786533,-6.01655548822191,34.3473431070752,17.0965106369863,28.9588458814906,-19.9163682906205,-16.7996349713221,-22.5429429518781,-61.2938847864716,136.770997049191,146.446601393227,65.2390704581771,72.6090909056943,42.3433627673448,59.3410093500397,44.3221840940041,30.2846475027814,-5.98910376091453,66.7938019159315,78.8494937451951,28.0147229584595,113.532635403697,175.214752124521,195.346589753503,17.4974071156716,-94.6316052866628,37.1342090902522,49.886781880693,79.0291474968526,39.7860182921845,20.094935392307,-104.609978190372,-24.6674140511873,168.706875574389,193.967091737099,183.695552048405,45.5362883138946,69.9523313868704,-39.0220057464039,-42.3409349575732,-17.9402759121222,-5.90097227442902,-58.6512277746642,-67.8557941278718,-96.0852926831608,172.127320334513,233.088460474642,193.456870370601,100.322460113555,-68.2168888932374,111.26927205592,-47.1503754455389,-13.7190522594024,-12.1128250373431,-82.5700877445615,-78.9517148119467,-176.178487365186,50.8525009154241,212.178913716917,233.24861635972,141.506016737946,96.1170778847518,105.519134318414,52.9027002058601,31.9509585266505,64.5930214381929,73.0858399421249,53.8805913457577,23.1883410710498,170.486316826013,223.864514122016,219.127874950441,131.706382134895,61.3374860576487,104.786358901932,109.349484500391,74.010802525273,96.3014955571343,-22.7890272793702,-40.1159567607865,-58.0532806730384,197.293175650169,234.771698121215,242.516242731865,-21.3611147577026,7.51428761840134,5.01646616941616,193.509843359418,171.270478493753,149.062147329983,152.963901366613,125.205403952717,33.9430558057802
,68.5,131.928739677069,178.85575864842,103.466769700754,10.7583410187899,-7.06802103537029,39.6011760010438,25.5264720890395,29.1117251836322,4.30492826543059,11.7118789119718,8.97527016223376,-24.292653760579,129.63598592146,143.113573799948,97.0799020295799,78.2162058256263,40.5980578730528,65.9765755537865,58.4710591308685,40.2571565593876,4.51999368745282,72.7918464249792,88.3995414155006,49.9910201536941,108.024422574591,168.31254397446,180.293829266619,25.0995998768049,-116.535511918153,46.9247495165882,63.7092549688628,84.4462751967012,45.0629880587262,33.2245150726772,-112.042306279593,10.8837129866997,154.480223597646,188.300452008433,175.979279580656,55.1275543816905,70.8162025482393,12.8769263339445,-29.7503970786906,2.93362797557711,7.84336185097618,-44.6305569305109,-50.6567768709615,-63.484522422435,154.568065205671,213.142653381383,181.602778828327,95.1317083797449,-98.4337072084336,111.375359149396,-46.1038205512941,5.48198901890464,-2.1921719785073,-72.3487977757445,-77.9809735117742,-184.257719983509,52.7367019631515,196.051304813941,225.636462331355,135.799043278912,74.9200469021921,101.469780215662,52.2588915542365,31.5603204554163,57.8732395667703,91.7951479321573,66.9312400306744,44.4229008811622,159.929691202168,219.042903752744,214.268632879931,115.735801723542,55.7611445979041,99.8004769914896,105.783031001477,78.0130423109972,98.166943030822,-14.9070635184075,-34.9085613481102,-38.297806410862,177.493287864944,226.037324420359,229.005074013881,-21.3004387262185,-5.58232568113317,11.9279344563174,217.926124872786,200.401899263111,178.742189534781,140.976107398104,112.178030204386,21.527672147085
,69,151.704195929397,165.836692804119,98.7425906844082,26.0167939469429,-3.07138789013015,44.896675722744,31.4213637994326,28.3544916690034,30.1814545111279,27.8134847437686,29.5414470529354,5.27874975839768,132.824376850838,151.448190627598,130.638977561088,98.5603888616324,41.5177152453484,73.2196652552798,81.8778457138842,57.0795133680667,24.2294872353559,86.3390446788476,91.1894131709973,71.2475874121283,119.256662581172,178.348285212288,179.641173320813,45.5417352823279,-128.522173981505,59.6917791301416,84.1189405156629,96.1346779385826,48.186548260077,43.9195200604909,-97.2973775706964,47.1243064717737,154.782154056569,191.118763019453,178.61572005378,74.05364396494,74.9082217706668,65.0203446929381,-13.4545693314076,36.5103053766697,25.5362841258084,-33.3575164546769,-34.3572795874666,-26.7294474048754,152.356817672667,197.180506474026,177.981466056992,101.061913614912,-82.9458727628207,119.98761488107,-37.9786698154276,33.0789939966025,10.060476303584,-57.4067375631357,-72.168050415823,-179.622011834676,86.5607820684786,184.539410230789,225.58989974141,135.976084508791,65.3082894011445,109.093404002161,65.0568920503465,42.88593851528,58.389289178263,112.788458160246,82.9690488284796,66.420364942926,156.012428724162,217.661909020045,212.531122409016,105.855255830008,59.087360017927,104.019106843214,102.348041773922,91.4131697077955,106.603077822106,4.41433678853537,-22.6322540487945,-11.1040253844612,167.289798409681,218.591443542428,215.958805113152,-10.1773312830915,-15.6588471155742,18.7627447840732,229.823300585814,214.804280242293,192.617316797144,138.734637090617,111.394388071818,6.66021822796711
,69.5,180.335319015717,170.320657651762,113.136986448214,54.6271599057691,15.0290827277436,54.7612263110159,48.6395923272853,33.3429789360839,65.6014844022484,43.3111304860431,56.2430809878983,46.3491751974707,154.106118998714,173.006618788902,174.087122807733,133.911429041339,54.2618894166067,91.6539578151046,118.319146405346,81.5746801957275,50.5447772978391,111.74833754095,105.3609995512,104.556560425448,146.767713410621,210.599818844104,197.365481615342,83.3381139317271,-90.625010033591,86.0049461316894,111.553732440537,124.663761605353,53.7819613012134,62.4665216968815,-40.2105456960458,89.1289182043529,169.749857793811,209.844897883851,198.715765463518,110.968189610894,96.0077027576826,127.30679208379,8.54562226573262,93.3536974436306,55.7578867205266,-7.95111527793733,-6.22684391106986,17.6391160803491,166.814100227369,195.11337200093,193.846928988472,122.510098646214,-21.6607840406664,144.06719994987,-12.6990859006528,74.487931556022,33.1536850881662,-26.6922989342838,-48.7625538094835,-163.161559427311,132.391045381255,184.170325554186,242.300456754371,151.470970421364,75.3325309383677,126.867575226122,96.473037234306,69.6349320667709,72.5046088760091,143.318863999624,111.173494037296,102.31029631045,165.416181250345,230.812427738742,221.167113690143,113.809774527309,78.6898229944536,122.606592225638,112.982909212678,116.38833742038,129.474925473222,34.8643938057626,9.0814045259367,25.4918003725766,174.09050691498,220.217266818463,213.385398454562,5.11154154346741,-13.3899419332815,32.3246258763838,246.715645051781,236.262359215928,209.241013953236,153.812036629672,128.274647937773,11.6463360757321
,70,222.621910941039,194.51178633736,151.062589050673,101.178193552181,46.6517106416859,79.0086892508743,77.3261642504312,47.3432820061767,121.899085644653,66.7801921642463,94.5928245487585,103.067712307411,194.720335197707,209.443190695713,231.558211172075,181.449713820627,86.9034951550116,120.808774969196,167.729182732281,117.52851475846,74.2010235310722,149.167632732005,137.823254796623,151.229773693321,196.236283326345,264.371263176563,233.475681384218,137.302100141075,-8.50867592593931,123.491510130008,154.204954564307,175.084922729789,67.5915650799143,97.9729375722109,40.5161744662482,140.00373072089,211.304181037191,247.953468584546,238.147381553208,165.934323368108,135.280577765388,202.053942998494,32.6803114320078,162.855971378393,101.954939897194,34.1704906588789,37.5823641947941,74.7551383962013,201.460263445835,212.561920238923,229.567823079971,160.311938413573,54.1065669149343,183.725064584893,35.4025939866056,128.041959804196,72.4617737222202,16.0837414156804,-3.0259275247131,-103.43394653577,188.912770551265,201.482524567814,270.833710434083,187.882010032705,110.120882989396,163.278728415858,139.401024480103,118.225357368589,105.21362344066,185.850305812211,156.778211764843,149.695164685208,185.08130759162,260.243747187348,248.12491834953,142.647258219753,123.482190403818,155.792701493006,144.499024626659,158.004928155435,168.439252837915,80.1753638898958,63.1644904349332,74.2184886880218,198.895989687962,239.139326344128,228.854235918119,38.6232440906688,17.9745427155835,62.752315880658,271.401547782139,267.233283129096,240.681899526533,185.517310084494,166.718621420391,34.5021631594095
,70.5,271.028714001248,235.368187433028,209.47749155842,161.118177253958,92.6327835404641,118.759868934612,122.074360570124,77.698360820998,190.023356432182,102.441316687398,145.587162581787,163.578294384945,241.785786376913,252.215667858912,288.043323566892,237.693023550157,137.841067010517,163.049884922636,224.707691791716,166.512105691215,100.821584282096,201.606802425456,184.752975468572,203.9530634621,255.279788505471,326.615864093663,280.242320685791,198.644961760519,79.1602918293834,170.590906729574,206.553708629413,235.297039345096,94.0599280097385,149.301315842469,126.996977598764,195.586712848501,269.53392819604,294.268816348567,286.368417700548,230.993211151878,189.029772360253,271.022934705419,65.473778955256,232.335226416673,160.611895649427,87.6937798260387,94.7365639640475,136.910349385897,254.115450823461,249.110030527935,278.473003591731,213.156404607283,144.152289189392,235.461731285656,97.4958608295442,188.404130727457,129.686320631941,70.1229342144156,57.7523393043739,-8.93075164412721,255.745360636778,238.051883653211,309.465241744546,236.308110325742,165.395783953988,214.916632562369,188.81572819006,180.180273876288,155.11411227104,242.349345011427,215.348696209436,203.035993643951,210.884373160736,300.72932836597,288.135336950025,191.279337789066,184.207651112498,203.540614665597,197.444478038049,215.850978350438,221.605235185138,145.33989524244,128.323363929081,133.860138122835,243.368502281744,274.769400926737,262.443458281914,96.7497768130556,73.2717772841252,110.571269319774,309.722381171744,308.404422754972,284.917753743721,230.580319014657,222.251757589701,69.3755873418177
,71,316.023894964267,288.430866589727,273.577162427961,221.573690443083,152.15145169509,165.29399515681,180.738962200491,119.808641897128,250.988422664203,145.933870362643,200.541915079963,221.572994951272,290.275888353986,295.132338532635,337.985860373361,290.186638401368,196.734485366861,217.309479839805,278.665428256766,219.321464550503,130.706128058404,260.066380812206,241.752005220982,252.475547687668,310.164938083658,386.140194431464,332.542064430838,258.275164991962,172.217740852291,224.213909995308,254.672818411592,294.62261849011,127.244655447633,206.58496342607,214.296663058969,245.037262204878,327.204634188286,343.661140241912,336.400100017825,295.356534146886,252.116752063929,328.748153664318,104.546523580775,298.135579986001,219.668180361939,150.889668329304,158.045609459041,189.651306258971,308.762291105293,298.884869096858,334.64382741768,269.767903768924,238.058210666418,290.127863125452,163.892116661627,247.924797484363,190.328005956847,132.07860705732,123.975719256591,80.8624729046865,316.965995625031,285.030207840973,357.046853933288,287.636355548216,229.289350752077,266.217638197797,243.007285520082,241.030735316121,215.55042181747,302.978915229131,276.728879893831,257.301840368877,235.689564102336,346.494124927597,333.147857679071,251.310189351481,246.388225478743,260.439887133705,262.760065837923,276.560797526278,279.064786102731,213.030504797746,196.001812414838,193.746570548975,296.595505682976,317.978759480769,305.999612158789,157.674666845362,138.728690114711,164.226846349822,359.18326064698,356.776270387481,334.082895538536,283.515132944713,283.075429970123,143.21973911304
,71.5,356.856896738338,341.359194308508,331.936322433466,274.975838104278,211.101230797079,214.253437447858,234.680311212814,165.734766873632,306.71360586151,195.865965797898,257.301529338115,277.385229680175,335.826104491222,315.733460256927,386.660380977109,332.953923804869,252.686015345314,266.630467124201,327.298943599701,266.537618459948,158.578011885554,313.907475029293,300.564647841417,299.142401130084,358.702221368365,439.549016300693,380.230833384376,309.216455627382,260.21833329537,275.784451964228,295.725630193437,355.38355331255,171.604158595819,263.317550428108,287.314854316463,287.058162712241,379.818427336279,393.967367547195,381.882569631663,353.141048122898,312.884944757961,381.531083045376,143.811019193501,350.955382578141,275.213756274668,213.852214074267,218.122409379861,234.950921664297,358.149915804363,351.842250047215,388.065072640029,322.4380278252,308.006271589034,339.361892380125,227.628632548677,299.355774283262,244.448394860592,191.835266158751,189.379516667711,165.318168853769,364.704578902096,333.934455129003,401.424072924094,337.131651927302,290.546534556975,315.48328544634,291.446867044297,293.687974908989,271.411291930605,356.682663212528,336.880522969693,302.541765080223,256.593905820426,392.922817027548,380.443292037332,311.811344435759,306.91278950811,312.155370362526,327.626784604132,331.779839100501,333.539913513882,269.598931798733,261.278265707871,246.343227627988,348.062162711808,361.807370467186,352.537469576947,213.617878735644,209.425615346093,220.068637885932,404.84177176993,403.759879686962,383.560327329883,336.088340454957,340.051092016276,244.4170242002
,72,388.441588182682,387.403083700169,380.049964846373,319.900422434197,262.291356851379,260.324356118307,281.617665830817,212.962958951499,357.641131877615,246.971463711056,306.979500118901,322.115248783795,373.140178984931,315.486602764827,425.952762870362,368.412234072905,302.896238373038,307.622699375132,367.387341266395,308.217179893882,194.306388600704,359.974319739825,349.670555023011,338.252605391453,395.262350548887,481.952184978073,416.886910039204,347.97814131253,318.305806301747,318.619033283986,329.682513039711,406.386274560691,241.284129395062,315.931561066106,336.90384981649,319.264067911765,423.764776922463,433.386932454867,418.149958030296,403.544610411832,364.195784710537,423.179180164166,193.293361851706,383.663922108021,321.161730764119,267.84611363133,272.102645506977,275.515539006496,401.910820116413,399.539029016373,431.010123305583,368.778094021826,352.330872652189,383.513958333054,282.687172882694,339.685913949761,290.926311893527,242.532333158314,245.114932481883,241.272250226327,402.734253869319,380.061473344486,435.798259259202,378.244342324275,344.515198310755,360.010656405457,326.89183215878,339.309784273738,316.734043990704,402.739312470841,389.446063556428,338.518588976197,277.395141170314,431.352931935936,421.722493334675,362.044669112763,359.786791201632,359.032798821541,386.548089254835,381.664813797933,383.43697634943,319.565592198261,314.034320923919,290.76480774264,394.374556549198,403.594441159069,398.30786353139,269.913962897934,273.874586801283,272.104422493841,441.952816467769,444.027308250349,429.596930083472,381.465474748728,387.129227432035,327.414028799839
,72.5,407.869623321404,423.092473024066,412.58957193754,356.198339682397,306.112880799922,298.063586372394,324.480453710758,257.841383255595,391.818244520877,292.227123629079,340.330493846509,349.028857517028,401.754969327927,315.319392947746,455.080856216562,394.339735256981,341.735329943579,340.566717255137,397.984221121913,345.213669439189,251.713893815616,396.889175859591,385.383727352641,365.155288447561,418.174548808017,508.9576844827,445.879614418549,377.017721706225,353.204108096753,355.624016886106,353.041261143997,440.199489359514,317.319970126955,358.367269566203,371.777649010971,338.137255474498,453.107696027199,461.018884487067,445.695052501593,439.305117607504,406.343572341831,453.936878433886,258.197425433797,404.888082912314,353.455875511784,312.885926082019,315.820595607644,303.773567674577,435.274132596553,436.982725925179,462.049275764139,406.810066667421,391.37689516403,420.175872371788,328.454683742962,371.748314866748,329.033743263222,285.793647341283,284.35470297921,289.690537730872,434.04895883953,417.453405480349,464.780598277268,402.760403456121,386.771868959467,394.03011671797,351.852147034905,373.845669481279,353.384577263736,442.460224740017,427.644354656572,367.934510912873,297.038138006544,459.437363073954,452.252567087561,399.009340837099,396.671059792301,400.233938134446,430.8322132146,422.603404135396,423.877998255513,361.358565530029,350.557549200094,324.922762789936,429.404359807843,437.156613744947,433.954239733283,312.730013057937,318.843167055467,313.072060963289,472.133401675626,477.218254043895,464.093808621712,418.278185832923,422.128521920172,397.535450801964
,73,420.134549643869,446.804813252711,429.461145076475,380.162638791887,338.46695902692,329.573331824566,351.02402628088,293.452178404268,413.278078002707,332.516187753614,362.400416387855,370.008178458582,423.799622806758,312.712365995144,474.267649973353,410.732414907142,368.57908926992,362.786639905751,420.663751375061,374.282440225951,314.441532879841,423.701746386666,414.733019939437,381.003788954027,430.943921373728,523.807943863786,470.591603980691,399.37567480699,383.462767387456,384.134574726308,355.546588386489,465.605475125682,379.135071436043,388.649869683064,397.484853049441,348.396257089485,475.276884187811,482.230961845357,465.036048700098,459.835758379162,440.120950477324,477.232486598393,315.575338857162,421.291478043899,375.650486156805,347.258018892639,346.4580099848,324.020056057175,455.955653183054,466.60089570864,483.962202585039,434.560111464893,417.421936107481,442.887860538459,365.174657846927,394.714935257779,354.89586086818,320.532333376924,311.983713749667,318.903576172534,458.382373335216,444.146891229067,487.257233789056,418.181286667128,416.346084762978,419.106258261896,370.317335747769,394.0774652391,379.553279233714,467.691320781123,456.257525770955,388.108044027813,319.9850407914,479.705667327623,474.721707420164,423.824662721092,422.52627937645,429.644148272893,460.123143935839,452.586775818895,454.689830154063,390.499943525625,378.389006319298,345.613130935255,451.121380084126,461.251341074942,456.799646872656,338.493789573482,348.854020416404,344.50976433211,490.682933674583,504.166325563629,486.085561961175,447.876787265668,446.139391034763,453.994971503797
,73.5,425.099404031644,460.85050557491,439.077658300216,394.381733867637,360.456941445634,354.25206156801,365.410673756876,318.602057460965,432.852243774493,365.669054552917,382.881582298347,389.024629998831,438.742459228428,308.321049731403,484.477185178592,423.27948257548,387.527080318898,374.951502327213,437.090276391168,396.060944760097,364.229648141075,441.888557660933,435.929925507617,393.911466642321,438.015311583637,533.214507003564,485.762871653336,414.166944007681,401.663840271437,402.424824960773,345.719074895589,484.648352924585,432.25210519632,411.184178679507,414.441487591392,358.21617933357,492.993244798582,495.514847109735,476.380230208173,475.636910588028,464.526264920015,493.336776857172,361.81085799027,429.488587813385,392.970987101023,367.249319484497,367.292268940093,343.517979512751,470.251030211036,489.251189179128,498.103494967468,454.564589404329,430.5582183515,455.707353882874,389.070745301741,408.976380626317,372.671210868237,344.637767046121,330.780557564196,342.213058962191,472.295626630243,464.256334253927,499.890526914781,428.208945420221,436.96391671713,436.957998543133,382.218340239061,408.32528161299,392.433966860849,482.658054383302,477.641830278861,385.722456804692,359.60105767292,492.145176104148,490.535469945522,436.777376975517,442.813840208054,448.839555596127,482.887733287083,474.662494315371,479.381510186654,407.778533425261,398.016600230568,358.924056031715,471.228058694856,478.369865452173,474.99681724958,359.274462807065,369.073550908392,368.574043701504,499.037193437684,523.896936304505,503.618054394242,467.617613367139,460.732899418864,480.891880878523
,74,426.712264863883,467.912515933548,447.448553706031,404.82338673806,375.577170042407,370.191632052821,380.139071570391,335.796836266898,445.045048490188,388.873854625204,393.850178643989,398.738963949551,450.233300199537,339.287163137756,491.217620390836,431.209089749333,401.047217988096,383.335858402636,446.319652471268,413.558487616769,405.180304566412,453.282393785502,448.699658862357,404.565439509145,440.290195710552,537.074167156467,493.630511947492,424.879174733267,413.615778306942,415.731743273277,338.439037242616,494.055943386928,471.66197908235,428.581845326662,426.710125078931,365.501173307601,503.197250504078,500.781216953084,485.036997007805,489.327286861443,481.447769957912,506.284890984134,400.307094998399,434.813572535281,403.679952235287,380.92403549535,383.17193872494,357.566976470873,480.941724553417,502.579479690153,506.292939991612,467.396833488319,441.849477850403,463.586185794829,404.753907608927,418.49638043629,386.749595567608,361.932903478719,343.197058936375,357.433403756991,481.085083622656,478.601280512351,509.217449156251,433.535341351742,451.427997750855,446.932096456337,375.408200565147,421.249494036415,402.03878354218,493.473844129803,490.758959194358,370.498113618704,406.025836313237,498.066806482439,499.372172585918,443.186486233813,454.560368777938,466.049869788514,497.55176428158,492.754507492162,499.238875761636,423.460210921151,409.256062251584,367.997750055042,484.472838896364,490.129642816083,488.711246627469,373.692911350942,380.270126474433,384.893216216107,507.839588641642,538.07418119149,516.621106788269,478.019305506324,466.673201109087,487.143832460528
,74.5,432.53739776565,471.294529796207,450.054322125055,411.085786860499,386.744301710308,385.619270719342,388.10887939858,344.806930915598,451.826098828883,403.903418179772,400.315221810542,407.45429462216,456.370395471981,396.418835714142,496.956927818678,434.294691566865,410.440432550154,391.784325205427,451.814480876553,427.564957783905,434.026653145038,460.811776626375,459.590433721232,410.227626092802,441.007942799089,536.073947926193,499.347647519164,435.352723926534,424.778572395358,426.626640728184,334.983196250765,499.474249944224,487.441141029484,439.601668108427,433.204575635566,371.280229074776,511.104352801638,502.654135477718,489.840771226835,497.804397053549,494.359494921043,518.651099530712,424.000817149828,442.569205061408,409.73437609207,393.785241816274,392.385419986944,364.872056660463,486.617833811557,511.715686525686,511.885684651463,474.854818003503,450.111807719172,464.526032447819,415.927741874825,426.943549174472,397.773715072659,375.862154787759,353.18449229192,370.533370401869,489.954398617357,486.051378800503,516.883248923823,438.70197527698,460.043087346006,453.928273863551,353.81698261067,428.208173496612,412.910773708115,500.506930379868,498.130008167605,355.50055781209,439.829600499792,500.885986111299,503.440707114953,449.258101818783,459.807852720303,475.796677514064,507.416877201435,505.805153907469,512.569324865969,435.786728638049,419.062845380961,357.977891154143,490.128741848977,496.367128268597,493.311429756344,379.412608271334,387.102990713958,396.307335795268,517.910687688352,549.835038035767,523.608011824701,481.968239917503,470.290136536949,494.260566757863
,75,434.870714643076,473.134385136344,454.008612817034,413.225683739307,391.331940937561,397.861787178007,387.770563778792,348.466118793478,460.121006674076,416.00879433083,411.381202038431,419.065655630431,454.897031403974,438.42915488722,496.763381536434,438.175364037934,417.281049402141,397.7590946406,455.79986810017,434.145817141371,440.745854006947,466.479912057998,469.671969661759,412.235238843457,435.453698891326,534.713084767764,501.051593509968,440.732819126647,431.564462667506,433.180251387659,334.934364221583,505.875369655645,490.307893514092,444.62670097071,436.79265178827,378.701521669221,516.777529981483,502.3611209757,489.094564003329,504.516299238689,502.858711170288,526.013103313917,433.832834864262,447.435347903337,417.825414161378,401.428660252524,400.893740139845,368.117651652478,486.866633568521,520.911473574978,513.234483354544,478.563902053742,449.47095118871,462.164621339351,419.135211349794,431.083941148905,404.809033345384,386.944172817858,362.70042385828,382.900851232353,492.769773188646,489.832902095812,517.427230719057,443.742924199541,464.104433584444,457.505112189166,335.571540724561,429.493293359316,420.823154093829,501.775509349441,502.702835790031,334.34709168491,463.65230437809,501.489664814664,505.503898611851,454.090266609629,464.224216354598,480.202428212918,519.569990051003,513.72397282621,521.185448301348,442.723739344014,427.750296986145,333.968260638446,496.971059395704,497.620711957274,497.223110091943,385.199983815324,392.763421956377,405.42483539116,524.737780722736,558.049649842037,531.050230602953,481.082897285176,472.577469394284,498.375267655269
,75.5,436.174389802084,471.586355719593,460.826934696076,416.071357696802,394.387632659272,402.651855754612,389.879561751247,351.160439044537,466.949235213789,425.049070053156,422.425977751656,426.787595317412,450.967826621164,474.453205856166,493.599391636946,443.559552734734,422.94851953461,403.389581460647,456.362668612065,434.523738672633,437.914110420131,470.963978498344,469.640297071147,414.618275889071,427.993921932691,534.39950520711,497.153212109965,442.977212228823,433.62913466635,439.722766314755,359.510775074145,510.053148867036,492.26490873586,450.574115831568,440.023314171111,386.609673244198,514.785227867645,499.283529230673,487.623584935269,512.658619061454,507.653783212721,529.855004569927,440.38091946206,450.961468572891,425.741440025816,407.199812407182,408.246977945213,369.337171922422,485.874674818577,522.902993379187,512.385320958766,478.670239584042,448.798819998654,462.936365149082,421.004726133092,431.930233005769,409.997641355916,396.081093379523,372.928736917455,390.5004181531,490.365533420557,491.12849616605,515.824747309292,449.483160434505,465.894241525314,458.99391784041,320.850496247551,433.406343816086,427.880301238597,501.694370932595,504.858553079905,312.093177239738,482.120913139848,500.235829799619,503.739256562917,455.825812159053,465.672957470691,484.229620497673,527.203319151843,519.9110088422,525.822923287078,447.003858438668,431.987018424293,315.129183134256,498.901535643817,495.715640349685,500.778470997326,392.347895051192,399.460086552113,412.005717626863,530.261791353996,560.164496646036,537.764282961907,477.936716659143,471.684012615168,502.97700616129
,76,442.068745577999,469.839198659408,461.594283060928,419.874689506007,396.808391014676,406.895945259761,392.709450662046,352.11111436286,468.270594595168,431.220836812141,428.240615975955,431.69982228904,447.984254582892,507.259338554536,491.817349094453,447.867733780887,428.180475935091,409.58254349633,457.802785819498,434.933500354942,439.579496934234,472.878001647685,467.995781706486,418.094233534621,406.079602591497,531.802776793063,492.792527273374,447.058576886422,437.061392028621,446.617632123348,403.891688261528,509.851633048993,490.447850424888,456.396437345415,441.936643452093,390.288434918146,509.275801111639,495.520203122086,486.991418774463,515.996778573744,509.755582835106,531.971033520796,443.895090309607,456.94358144228,430.741154907636,416.49898952551,413.48003650022,369.621968492356,486.477007404191,517.992868825884,510.653930866779,478.920406586326,452.575059359134,465.592619855578,427.388308043792,433.914912961029,416.312361468548,405.413057915013,382.787937758555,397.3949752218,488.751280341994,488.896981234016,514.2157653236,455.705348139242,466.757440794217,463.756225011365,306.302977478833,438.901212878005,436.041551716491,501.781364115145,505.234458193647,323.040792556675,486.124037345934,498.202609838777,499.607546321312,459.734864718299,465.20720089304,484.947293473994,526.635572464669,525.454451331643,526.499602261099,453.456018901866,435.485341925389,296.615249776685,492.934185104003,494.163961184791,497.937549366369,396.25281063338,403.515784815708,417.310634945954,535.324788795616,559.649254290704,537.055793432809,475.306959135264,471.330637916327,506.945001138528
,76.5,443.386827551127,467.213930853544,457.929515677117,423.11784938296,398.206398790213,410.433761069942,394.227041165344,354.078363766372,471.656893544476,434.438720907421,433.155080292913,440.954569919519,442.018996834031,516.922196790163,487.871458222423,451.926959026039,433.110803778323,416.261006816917,460.887408018963,434.323501383015,441.407203037184,473.375717920503,469.050873465943,417.053415303895,371.128466050915,527.944809610246,491.353815765171,451.423989137305,441.267426605478,449.067198155275,438.797398579025,507.940939399755,487.803586211142,458.851550051713,442.022607086228,391.065924525263,504.938627046763,492.181051921583,484.276398275616,514.141359817439,508.97395465909,530.757520225704,445.726007805603,462.369681441886,436.801908733221,422.987816330754,420.426781984842,364.709571181671,484.480634934733,515.930645835073,507.559408583872,481.661670947171,452.576490807943,469.770501810343,432.75243669897,439.666817033673,421.425215026812,413.325291015739,389.460007747804,405.146074568813,485.156972509704,484.996429674587,509.170563408487,459.53058746104,467.686973072442,468.445646972925,323.991004781971,441.185739503598,443.867486802057,500.515156396633,504.194015320896,359.066835595823,478.937061620015,494.135876067921,494.753359090192,463.624881783344,465.867649282081,483.837258067806,529.467803063818,525.397474543749,523.029262256222,459.641574510614,442.109919823043,278.91553528805,487.804181882094,491.544118572112,493.051401937079,400.95705146288,404.835134172001,421.789304128492,535.252558408895,556.241212262473,533.832787916881,473.899142863751,473.515426574649,508.550791667812
,77,440.676617437081,461.076190866771,457.095788769098,427.468890635963,398.377705615689,411.362912363895,397.378587083535,358.084546014691,476.072630272346,440.930989202865,438.806576803635,447.984089899029,435.974314633992,508.693271004789,483.353660338433,455.882012538099,436.23122178043,421.194039976413,462.477311117353,431.532776358143,443.465170204851,474.82963521154,466.723762989346,413.718147700898,343.675786485994,524.793339019823,488.912035583743,453.672618729912,445.324021850825,451.940532501311,464.543821676791,505.767173626826,485.661935173413,461.157449496001,445.163730867874,394.821298283405,500.571959103962,488.675338518513,481.337986573365,508.930016062082,505.821299916443,526.632235894625,447.819436140953,463.177394610417,443.76475696017,424.123816522807,427.466820497655,346.092459680046,480.862525354905,514.31260751267,503.399271759051,484.677792303213,451.696559353587,477.076845444871,437.561420289865,444.195324742777,425.618663108119,420.004322729142,394.0819702995,410.092731081569,478.681436520327,482.057367506502,503.250038590108,460.103164229389,469.201558914618,470.043835753608,371.063542027953,443.27619947338,449.959008656833,498.281004569213,501.288502696838,388.272651251986,476.054857880422,490.074439475123,489.168446437417,463.948894343365,465.544390667067,483.821804018547,532.02884283106,521.365837443753,517.896554289269,464.064743670673,445.979180425677,296.911848944772,484.379828148121,486.857725879472,488.948536785671,407.188924886981,408.348969915608,425.943608837933,529.033621209043,549.778142134612,529.71038244884,474.416682219166,472.96154915035,510.344012506433
,77.5,440.494543370542,455.930782184708,453.344480795958,430.836295011664,400.611628453963,413.550794584447,403.700277903331,361.90598951627,478.476582354915,445.320112946393,441.85186775342,449.841060672893,434.173338677878,503.554128206715,482.073549533399,458.733391543456,439.187370571221,426.237055255538,462.197185766393,430.23080473315,449.062490223281,475.397281721517,465.452622210819,412.467732982291,324.408377564156,521.404270456919,485.813183337375,456.59763117563,449.143005226431,456.254892704806,485.307181946997,499.864136472892,483.642744951077,465.674083225281,450.973593390299,383.276798951856,496.734103029869,485.285098912417,479.363941547792,505.131878337496,503.718278505713,521.058223837815,447.594465175743,461.752793362027,446.14693171752,427.32450472314,429.623237548202,323.770156454385,478.522348963812,508.395694900782,500.184374166467,487.135955387631,455.440812400486,482.342099580399,445.26134223081,447.835859961521,430.799276733311,425.798412950738,400.418741309845,415.694495353991,472.616673923654,479.718236063966,499.839207690586,460.865611758602,471.801319544498,472.491226265368,411.680507564186,447.203381433893,453.112104940612,496.500134568201,498.421050598842,419.599245431745,474.224505648153,486.375315581902,483.773383949974,461.886520636696,463.719704679758,481.181553822371,525.776220810464,517.660269373929,513.39303752381,466.648296602592,449.334893924774,342.542760802092,476.667408296997,483.755434423598,482.009346673556,409.393887760551,413.082161026869,428.152661589043,521.15446447969,542.396733934848,521.314454098374,476.063137189289,471.735636312981,511.164405901552
,78,439.374610988167,454.776894889144,448.506713299142,433.071838671736,405.203773154818,416.309915444429,411.906802872224,364.961087439713,485.986762151719,444.769920232188,441.845664460256,451.422106714088,433.388805761814,498.907812397362,481.350432224756,459.927116740789,442.421568625909,430.299958833684,464.786318588205,431.091622713257,454.194026325705,472.210922158164,468.027437694389,412.179749419189,309.122184086481,517.530238709544,483.485466381185,460.763137982512,451.378075602584,458.272554127994,491.170865681539,493.065800470399,481.410525661431,466.595476925504,454.986149724385,355.334298863981,494.910045148536,483.245733274297,476.237781987984,501.745689284875,500.014905847201,515.806123004465,449.053275575033,460.418300396315,446.652115633995,431.96864540136,432.872252132431,305.089625674809,474.996694647146,504.209732134514,495.727476388913,491.567055370479,457.993766930324,485.70113193831,448.796835429239,454.495662517254,434.090404215713,427.93791614268,404.187916990138,422.38077619764,467.886922695389,476.643541533718,494.813370507353,460.938644247343,474.764363536165,474.353320081685,445.100486284046,449.890293752643,454.778596901319,494.098604429381,495.170072437118,449.756472862399,469.018879756494,481.131718898234,480.098488146505,460.516979260656,462.561229093724,476.857825428809,521.454432812519,512.253551539115,509.222669810147,468.437402625342,453.93150765698,381.949171588115,471.744562285441,480.272361145384,475.098119022487,407.741953689715,413.445527195998,427.940183707957,513.314784473879,535.333272244649,514.103371442298,475.308237701139,472.784260651616,512.291293142827
,78.5,435.80939795216,452.549127686021,447.96029639911,438.475199733133,408.761234660868,418.051136010667,416.090772412222,369.084182245394,501.216199588895,442.769012392373,442.232613323992,451.307456941792,429.39907073626,493.280859792713,478.777421917756,463.689501042518,445.937816662605,433.39885377757,466.330225587385,431.778927995942,456.581573856254,468.13208617251,468.125553122259,408.930896464507,326.397320250266,514.537726761626,480.731001703571,463.644812034197,452.214039449483,460.159899843411,483.695083813967,491.041437062809,482.29614782715,466.838482785551,457.501760074111,333.79746258701,494.35882213667,480.501231768875,470.857680015802,498.459255700912,495.605253840226,512.966356418313,453.10106977591,461.0572385431,449.361113708243,431.931267156997,438.9554320129,287.495605693131,469.350870697931,502.463939471253,490.566198055919,496.533871531104,456.933824083832,487.857074534127,449.352182208068,458.296237154043,434.924588957268,429.048777404852,409.126290812774,426.35879220017,461.648739650563,474.402993107822,490.069827074079,458.104684444582,476.935991692352,473.399511581992,478.450821364581,451.425918155231,457.473922565779,491.708625492474,492.429235998179,460.567798222594,464.209688481427,477.22778704832,476.816674155625,459.160994642118,461.473236725853,475.943462931976,522.604517156768,504.562731174746,505.986765984159,470.740708661306,456.433765741919,424.121978611842,470.116809402799,474.388287588957,470.372199340185,407.707620253835,414.272868688425,427.243800049084,504.711058952364,528.294958060498,511.306742806481,475.086663525487,472.880958733569,514.320787937385
,79,433.871805994293,451.404597596371,446.600926997997,443.801255245348,412.018290522643,421.791440500373,419.006821238554,373.346135983085,516.493915755445,445.16100524585,444.675907736106,448.333787459496,424.16555972727,488.976069187572,477.05786841564,473.36162173392,451.051346814544,436.538885228093,466.768474898493,434.795045317316,459.38166138325,468.27926773082,466.391039322788,402.69065146664,370.554283586281,512.357866525485,475.622595686792,468.018322985779,454.784183986331,468.54224368996,480.844792965073,492.298472177587,484.437249995222,471.269781842203,462.414739185998,319.496394392387,492.960329818298,477.711344233361,466.515628231724,496.849131438051,496.845049045804,512.268153377402,459.417104463023,464.304142403803,451.601124532787,433.031781903245,440.623902274169,283.537460411111,465.764983196299,497.603186609312,487.637847075223,499.045994909935,458.354557129494,487.971671125112,454.193620028611,458.799050983822,438.849941223639,432.063188086761,417.805987982778,430.173314083178,456.714090929509,473.028638973987,487.425818016663,455.269828052773,480.453233542151,472.347954356997,493.892369016389,455.029157614724,460.230113637129,490.923332946693,490.175705059246,457.780793940856,461.120819957193,475.896529188429,474.315201404801,458.010666289423,461.473924888286,476.199050510098,520.16192270978,500.80670061472,504.786943146763,473.312470371784,457.404094433317,467.445764892914,468.878645623796,470.16005095127,468.779134357551,411.250925410824,420.293148951926,429.002311810641,499.757591011016,526.104134359305,511.7904508381,475.497538934457,473.478199173699,517.755135750186
,79.5,429.555945458304,453.456383400929,444.392649962324,449.280579295233,417.134658185917,426.019786011574,425.776812954141,377.185159906464,534.162355844033,444.666445892651,447.710342365367,445.056771477036,415.582601461215,484.945562281958,476.525927195336,488.944956878978,458.484815169602,441.365241088473,471.224653072964,440.119169286598,462.415536760755,467.759614028735,466.632183378364,383.215458074889,402.807484402693,509.239870235449,469.95317647607,476.160867847417,459.509024798612,476.795018896573,481.676299861658,495.721771096781,486.228730219632,474.871899476556,467.134565741912,302.952090258569,492.265553310712,476.332392351342,462.974113776026,498.784978330144,498.653019984404,511.857527139797,466.492107274039,470.161215210333,454.391192761153,437.893816826917,442.550726612011,309.755144608383,463.407115509426,493.076554414454,485.0768327388,500.409331739807,459.70746316102,487.176292396142,458.023152884865,460.825183067083,442.831538178558,435.828113656792,426.125103778779,437.1877340362,455.002298769868,470.888570113617,483.866075729077,455.508830178518,483.003672354118,472.494422005681,490.980612180935,461.175146000728,462.801084690595,489.813087203608,490.024064649501,456.558862566142,456.745999044404,472.687452226108,473.342873422739,458.30374856546,464.606871907677,478.284763696544,516.622822093047,501.462340698899,504.993003687334,477.253596426922,459.73360585315,487.960548957497,467.145331197686,469.071613968849,468.270855905331,416.339967910791,425.166460379705,433.634604890023,504.077739529102,529.62101487909,518.350624325035,474.238235080567,475.174502305766,521.974452747857
,80,424.439558872443,452.847338851235,443.412088606092,458.799897926592,425.080100510067,430.091482829798,430.861584458384,380.01057961742,561.27250248935,443.555529838153,450.256668278171,443.910775563415,402.149774676117,480.795258854283,474.314919460925,511.248715020772,467.197672595856,448.206744151964,478.109052021446,446.640996971584,465.190789406297,465.106780192574,465.431202516529,355.435114119492,430.560154155008,504.875205247317,464.66110901691,488.001157913992,467.470710398927,483.702704979929,482.479574592214,501.216856565347,489.59115800842,481.078557274346,468.689859898264,317.119916812451,491.423509288683,473.024378360752,458.677208231001,499.881200088253,496.678104695094,513.562891178679,475.208511589459,480.305302604881,461.157190789747,442.412381947377,448.767705504454,351.154139890504,461.508537127703,491.274368325855,482.431018065824,502.625661166263,459.360574799859,487.831365484565,459.112261047378,464.883482091332,444.686548617762,438.983844154666,432.415758080769,443.42647348632,455.782888437062,468.536329931426,479.427839419869,458.299446088502,484.235570293318,473.38134600016,490.973567883265,469.694882395022,467.471169640665,489.35159192064,491.588393468712,454.894554917864,453.680943594899,469.072644822839,471.507399862131,462.523408631638,469.489952893533,485.09431152068,520.278827149373,502.956456794721,505.911682952696,483.180894032104,462.865956042691,490.254036566979,465.878766122316,465.48106724185,466.510391459942,423.942135332155,430.425701274164,441.542242301513,519.520713704798,540.514184738799,533.277383789047,472.844104955419,475.745529459975,524.253378403981
,80.5,421.782953342863,450.712724037934,440.283763204237,472.408246521161,433.092752012037,439.502192292452,437.273750893966,384.409055457464,590.983409699912,445.913578566898,453.961162372732,445.831379938992,385.099923169707,477.927546738238,470.056377326147,544.65300307345,477.180559777737,458.055248059273,485.370401603091,454.272333559566,468.116571200805,467.234993899381,467.429839411146,331.847841950008,456.841131970225,500.822570793932,461.58722651772,503.68134327831,481.117562251964,493.769731707813,487.701029893371,507.123718585677,493.693412248791,493.955948993465,472.948520172448,363.621573590885,487.973135070264,467.700468825174,454.716665631378,499.958545937111,497.327366364731,516.413936257357,483.155049610807,491.588482497711,468.017316409816,444.232130528127,452.893250567543,386.923985407093,461.510590776454,487.675754767769,480.690932987323,505.100539185654,459.117224019853,488.133126339498,464.472622131384,469.697889160785,449.77404102249,445.76828275937,438.875333832088,448.966413898531,455.107536700259,466.503941864401,476.687685742538,459.341711350529,483.683633368686,473.248908082808,495.845195689793,477.283030813872,471.987189489964,491.994172024291,492.940182701508,455.566953409168,451.975954982138,466.801308124116,468.695970540305,468.69538773394,475.737810628704,493.883594117099,525.28901378915,506.791031917485,508.451261110588,490.27848060869,464.464091107231,493.376173680995,465.133710872383,462.494745040316,464.057671231312,438.965886777224,441.609389575819,453.463106949895,547.303062279848,561.54903512492,557.592929657398,473.058145559745,476.251940116746,523.674920383736
,81,416.861766269502,450.211803753509,435.594603546077,489.222156675078,446.393550416334,453.050744371639,451.921993986708,392.624159943685,622.184352634526,449.552738525381,460.32722683786,450.416908171338,355.257063634365,474.816268634012,467.677315226877,589.511233496674,492.972767778511,474.657249560844,498.287212316657,461.519104829194,474.268626226833,475.868829701496,473.730770665768,314.305596079153,465.625337798615,498.230615965476,459.11858805466,526.359686856685,500.5285163961,508.681368208167,493.647244311758,514.477336515383,497.846031418183,506.958239298309,481.673838369223,404.990334761591,483.862753667737,464.218640578915,451.96160409692,502.028542596455,501.390358128206,518.286099435171,491.158328299174,503.572196280523,475.213331146735,448.944943695797,455.130236731756,417.869447358595,462.497942999382,483.654938415646,477.678157487936,506.581293129006,458.493855111783,486.399424038802,470.66175264432,478.179970742498,457.143741032545,454.083635334458,444.463713980297,457.646781820974,454.710907118587,463.651807402396,474.343232985774,460.814893391715,482.142039442243,472.279679950266,500.656984161926,484.374740794322,477.058532397036,494.856917839924,495.069713403107,457.882214896344,449.038147008806,464.817954950965,464.918232523094,474.002508855024,483.619436536095,501.604614831433,528.561173968789,513.462110203749,512.262244853952,494.024871887049,466.294865081762,491.59192487379,461.691843297299,460.795456646566,461.15379737903,457.008628187641,457.026818512682,469.892816439664,590.208359881704,593.216869593944,591.739276386492,472.1922808499,478.265967079422,524.761831868537
,81.5,411.090466402454,450.882036442119,434.584489336675,513.910106132236,466.503075836235,470.475086017559,467.829995864951,399.753699194363,665.322860787095,453.25984261787,466.603434110739,451.917386281515,319.975643491064,470.578195449891,465.271870505343,651.464006102156,515.678338499838,496.745765505534,516.942503264022,468.949081661995,483.350256034481,485.768485403989,485.101326673219,309.747783339722,460.658581760326,494.425308799226,456.185633573262,553.191849336159,522.561398043241,525.636432230697,497.09658502825,520.739786265424,502.904991157734,519.025199341507,488.666371279161,440.500955274446,483.778829408186,460.384691549413,449.210316168425,505.669609801114,503.046382682744,519.624491412306,500.053618902912,517.400421890615,485.406696761636,456.212601737494,461.359215039509,441.458806873878,461.401434991429,482.097824010256,473.603138575802,508.227438417784,458.013409700901,486.3444763532,473.740734447525,486.327468585522,461.370641017054,460.099638966321,449.492217728401,466.775552003618,453.732105151778,459.710401687013,472.11427721558,463.741026135716,478.880664852557,472.445647329471,507.251687771482,493.757622273667,483.908039008963,496.4347298763,498.635288161534,460.637215441716,445.982257892356,461.133041887603,461.268946429803,479.417834509376,491.95293532401,508.544405604508,534.059916005383,519.674721361649,515.996164263262,492.514751929813,466.752027529687,485.873446784013,457.423658188452,456.561976412936,455.999723291058,473.221902599906,473.809800264039,486.594991574034,650.94212190926,633.789761200213,636.885457622858,470.728214657465,479.187442263094,524.539099794024
,82,409.583640967123,448.374563506035,433.474184968366,544.758041198901,490.299683015286,490.558748987523,482.164678228159,409.196980206311,715.556210205008,459.444347005781,471.224633262656,454.08563776791,295.183011254769,468.010809749367,459.420117181562,730.385139886167,543.035303880226,520.410267550768,534.265097053862,477.25530782453,490.714650644734,501.930055876357,503.203190131379,342.495252197471,460.541537567731,490.655289268808,456.132170280116,578.366767345379,543.971178876698,543.744574873415,501.475709613022,524.450548635519,508.494467586812,535.669420819848,496.390108236806,476.667381967939,482.103555146561,456.205835534844,447.10743871161,509.46560293244,506.484169228054,522.637215147991,510.027445004825,535.182426763201,497.297323674463,462.261082292161,470.116207772492,452.247132763419,459.732962209758,479.672575397948,468.916987387759,511.846362109533,459.978153105108,487.662806851556,478.896973254784,493.832079799688,467.438946572796,466.5736106022,456.350585631658,473.504466348651,450.607399873793,456.311062523904,469.631047680753,464.576534158915,475.183267185103,474.080839021393,517.199845714918,503.276164324797,491.139956938461,499.909402561195,502.078007433598,466.318711005451,444.180543381814,457.692909155315,457.663069796346,485.602413658767,499.521672729063,514.5973088539,539.853917556213,524.190026964757,520.475458542442,489.790095496903,466.362552202193,482.96424747215,455.034701228506,451.168439648165,451.578805305809,493.093834765376,495.321396099406,503.03567871341,728.686339289891,684.516734310197,692.99502461843,471.28687401784,481.795871479094,523.100978583873
,82.5,407.595465882355,443.240560855477,429.604679412965,574.07365616931,513.451027850428,513.433331990693,500.865562346512,424.279012062343,759.646705018749,468.500977219591,478.221172355574,458.533986378639,277.618973647434,466.256315861606,453.653795322905,809.012648392983,570.960147373894,544.397553326934,547.922394948153,485.064356736853,498.161151779331,530.412266342056,527.483021853425,406.491896448426,460.401620171458,487.691858464546,455.331606741723,602.92106562768,565.033015233714,563.778871934278,507.304697876584,532.561433611899,514.082332669856,549.361853154049,508.097440898563,499.805506178269,477.814837315538,454.170185722814,446.163963459392,514.544670818066,514.395502632091,527.674354305209,520.21922470258,553.85010140525,507.187656871743,469.469573511474,478.112666958133,454.560885910151,457.449011687652,475.455917328855,464.152347245588,516.608404124824,459.390153826618,487.431635450179,486.364911985599,501.242896340449,476.667457327292,475.014219092787,462.167122189877,482.022656358226,445.140616086487,453.252896917672,467.339851086409,462.167868111253,472.981820699898,473.046250828518,527.292127332535,510.56224461832,499.682759182142,505.603363823572,507.357878071163,472.78876962876,441.483166683223,455.48122440779,454.315139706007,491.435204659207,504.903374508008,518.379601669489,543.872163158697,527.573564312862,525.690087514408,486.310977748057,463.650389570789,482.918276070652,453.957499649437,450.08448949609,450.221932993983,517.788056425818,517.406227500393,522.55326151555,811.04501061552,737.010408036812,750.788240290207,472.330970440754,486.57990537077,527.119785133298
,83,399.768217715108,438.441045624986,427.40525348885,602.584923851124,535.788541424033,535.044771107267,520.668392469652,439.190131499821,801.448348060344,479.693425750035,490.592179954542,456.672377910272,268.831245330433,461.681361954848,450.356295576664,879.550467704294,600.115745623377,571.633569712978,559.60814151359,494.453400056253,508.695336643494,570.078749898046,562.319146960656,477.498223982803,459.555773420906,484.500425080847,451.382385043692,627.232609760363,588.220442514753,586.025200101339,511.643842159908,544.034306188028,522.508363299676,560.07824623944,519.975970775544,507.836094871046,477.445858678513,452.952055687505,445.367289563504,523.509802191717,523.85724931434,534.694355582345,532.212409749721,574.732111008187,519.444284566206,481.442511735964,488.337813788894,461.634599915331,453.85637863781,473.463939644649,459.143130799008,520.011587010245,458.471155613088,487.515682383805,494.651825262311,509.540209071368,486.714708459078,482.314290681365,469.944538182517,491.229414037351,441.406364764855,451.179599834376,464.901422757332,459.794030790593,472.691418794357,472.785172936619,539.207979059244,522.967641474295,513.505947475994,514.085397866992,516.912427815002,480.404775412938,438.611695007421,454.244824368334,451.256795329133,495.677113562405,510.032921140644,523.330490985135,549.544903057155,531.502910013345,529.554357200372,480.707003025924,462.499165493154,482.510705554189,451.075147858413,449.932148148661,451.061330538565,540.341983469911,538.281885488976,543.365926469099,880.80502768912,788.528678563377,805.481282620889,473.097358634041,490.663605087369,532.764938246679
,83.5,393.73400613103,433.548480925627,427.971166734018,632.268414657093,558.120462765758,557.115923376303,542.256686684259,454.08559279238,848.089382024943,492.744381844666,502.066927864551,441.905911969377,293.010494896226,459.79469898295,446.50399818305,949.18611435904,631.997061217628,603.072898537687,572.18225122775,508.032657342444,521.732221372036,620.084781715067,610.870611995488,554.320664711889,457.595430217755,481.474501818085,448.798008345344,655.416935293741,617.278597079178,613.44209200728,521.569425360989,554.931433080263,534.703817857079,579.134299478407,535.018199819413,520.865712170244,478.123034145329,452.380533559921,446.694656494758,537.269141708038,536.508319604942,544.832850386964,550.606603558525,600.606248882189,538.878492093827,498.762204735774,504.354402609361,477.262337062438,451.02937901208,474.331581399069,455.453310070191,522.570792643078,461.811663265097,491.373937000377,508.811590252539,526.212953781444,502.296946337849,490.586715304518,480.51157689242,500.335122983918,440.883806049928,450.987836595348,462.545357425545,459.838298686488,474.011834968038,474.810176071735,557.411582855475,544.595381188259,535.118203861221,530.131383034945,530.231498617014,493.513354220483,438.694760391549,453.171294394263,450.729259992328,502.879297712788,516.285329797267,532.555640074863,559.427646411368,539.301648531456,536.689026198984,479.527283694463,464.222880938984,483.083256463599,451.520058431942,450.525327503665,454.388435341264,565.408220614353,562.974980766637,565.4495265364,939.961302686114,866.177345014087,886.135451004658,475.574582149388,493.935187855726,536.092087683265
,84,388.134171230395,426.921463854273,426.641447439096,667.074374839073,583.504752753615,585.07145814047,573.169971519361,477.219300666423,902.705567427855,506.376628258689,518.231582917719,428.858290940669,337.703170919877,461.508324678791,443.293138759123,1033.80589942919,672.98596434322,641.431985179632,590.968085042412,528.616202009194,539.295981099132,674.181256036656,665.489679364101,633.168709402017,456.351160277615,482.531810243047,449.924625088328,696.917270340647,655.577292579288,648.822189306677,541.186857212316,575.045450258062,553.257390963782,609.206862321049,564.511035868095,545.264518959546,476.614266657108,453.260087302388,449.09167628261,557.08860647235,558.170122428786,563.295259777403,576.275552723647,636.462740414705,563.664039995577,519.463709059678,524.432502208756,497.510486334915,451.217045929644,476.859390307326,454.440094543326,526.791460935106,464.075615393909,494.64469910361,530.86408725315,553.371692010788,525.805352894429,503.639475089728,492.473520181605,513.242956886078,443.127819734623,453.541139343868,463.030257835509,460.720306443368,476.566600973502,478.413255421041,587.273067429581,573.969816957223,566.077778254095,555.156548211905,549.781051013635,511.428437692858,442.17727860015,455.112825336625,452.080979264009,514.024579609545,525.150008835806,545.492612990799,578.850129405189,557.32887362992,557.024591795418,485.785852990835,468.104149709209,487.98054400604,455.984506960342,456.037631196662,459.409920808884,601.065159013987,591.716576614689,595.216112583966,1000.39418475145,988.163515301034,1009.01794783224,480.264226331097,499.998861639301,540.929577217449
,84.5,377.821919852247,425.531417712732,425.461379744845,708.936730782046,614.183533456257,619.064214572667,612.759793094644,504.210088088738,974.798274130306,523.171051728197,539.364870672456,425.912907773578,376.822890928444,463.537835022914,446.139267957127,1135.06972519632,720.78619420693,685.809709284831,620.202036438138,556.705190710201,564.225299240858,722.895085817701,716.115834272763,694.494279465345,459.450301725411,487.252150034737,451.4081539938,751.622427812602,702.22832142871,690.471448027994,572.067944885312,613.867911161385,586.752726567661,653.141536478362,606.73644387134,580.491663460658,477.015239288688,456.780806742473,452.535803817218,594.246438472605,596.753843157107,601.454534540674,606.628199310969,683.870390032148,591.092899308482,543.661815107349,546.662515703251,518.166513437805,455.103556856705,482.494992825454,458.136248585158,531.100371254255,465.322277763821,496.216340026268,559.495698225334,587.184439809757,553.588086949297,517.318409607125,506.27090034521,529.268260550146,450.699997915057,461.133913102863,470.499812120205,463.186975537174,482.150580435042,484.339644121065,625.386090845552,608.502158246309,604.780476593019,587.034788602009,580.361295018275,534.903306987361,448.593930269381,463.684481765142,457.024534123173,526.838721488978,537.617039779622,560.313492168964,628.957007563137,605.273011906054,607.062922858039,495.10112212784,475.075499846997,496.010194417852,462.883194516594,464.887231504194,467.957314980549,644.160704503802,628.068180658863,632.768600815239,1042.0861001865,1121.83688668407,1138.5758273324,485.840846919828,508.705641645113,546.255594393072
,85,367.452262903124,433.635202204153,429.783240707787,761.599323961386,649.758943127868,655.827040240621,660.044417169504,529.28891292701,1068.87190935149,542.719988650567,559.912417817301,428.552063082415,416.220855586937,470.162681433044,454.613228902783,1240.70591675194,771.951465864166,732.200351477078,661.820326050723,586.869628186525,594.223387891179,759.847612199715,757.458223502304,730.502808951921,466.818124769098,497.311597107272,457.629380074841,809.314000886819,751.612019116926,734.0166137601,636.871984068638,690.494777299241,656.963183362849,711.25657727196,655.137513863902,622.913511926849,484.422709409385,465.583108166684,461.23731884245,661.057483261664,660.522129042462,668.041132196524,637.698625568984,736.574999480063,620.484258213505,570.579790092771,570.828650770098,542.356012911771,464.906598300387,495.519275805742,468.270160115816,535.179742807402,472.709277593884,501.786272763449,592.500227753769,627.353813516277,584.116287756061,534.250452077169,525.949224144943,545.715675070658,467.84812922972,475.276483788573,486.097903640607,471.974288898851,490.343695355609,495.586212885967,665.6164786534,646.361141758959,645.573849141721,629.149047116125,622.754317456175,569.239540512024,461.930524338807,478.061395128054,470.7767746763,540.743663207419,553.791314269981,577.087599120018,729.27192395461,703.112403094273,702.305894442219,509.190859701071,486.434323199262,507.612504343093,477.180869757101,478.012687454457,482.384498708293,691.922940076348,675.817627957291,673.058062048739,1049.97554412757,1247.41476421131,1257.3275246091,493.569918015199,517.33958245295,549.498720041884
,85.5,352.61867671696,446.098728906163,440.35457921046,818.192639152259,690.41336943815,695.248328722786,708.328658682798,557.214102624023,1175.41781817656,562.216070449432,580.789492152787,448.196592522172,458.964333908284,486.913703858812,468.867493763491,1335.6491314403,821.45039872585,772.142350960483,712.553131857894,617.4965428085,626.444801436087,779.267698970846,780.206817434305,749.077016264483,479.973058900257,515.719896070392,472.412454975914,865.61228233042,797.235520318633,775.95176306497,759.7341912525,837.031434995601,782.314119106953,770.216276758689,706.883915511344,668.495176747055,499.655535605559,483.07690671453,479.297846070559,746.007491778089,743.411322033126,756.438992229664,666.463217354358,786.401388031179,647.107140720151,598.628493298818,598.432566763736,569.757370419443,485.181223983071,518.762806744047,487.145367808053,543.48030638841,482.940731023136,510.432155076433,626.447891829522,669.791539403097,615.786791193558,561.753484764895,552.214614621339,569.652854624483,495.158572919458,498.249415630533,512.846922580746,487.778147049426,504.208800175938,512.328369725466,702.250533390516,682.058394245128,682.003899560052,676.80217741528,672.615345958321,610.291061805776,486.15944747197,501.905344923038,496.676243479334,557.24784911347,569.864170464499,594.582440284279,869.652455166604,842.54457482006,838.593863318275,529.269310911891,500.656909176555,525.060085648978,503.088539061122,501.103795156515,506.276368965091,740.945562254534,724.966525494553,714.742968093183,1046.18997182404,1367.85121776846,1366.69764317913,506.115674644029,528.388600052953,557.382590421675
,86,339.588167492551,464.663738483911,458.246314226544,869.622892003579,729.962444144447,733.252415185387,750.09817727288,585.982745962194,1277.1695885397,583.791707172813,605.148740685891,505.208671096206,496.214385298636,511.678445430658,492.594839033603,1397.12820750406,855.680800058107,797.045515919979,759.940033431065,648.540822152582,657.242680921947,785.805460736935,789.684515272329,759.497561025052,507.587288388737,544.770844628938,496.686155520064,910.982423013365,832.76849932206,807.110390610858,918.32593299941,1031.10315121163,935.015252224,822.068392406532,756.269814349404,709.890309858476,525.771960723291,512.407559774065,507.75363886121,831.994847854468,828.04831771367,850.004206798172,687.659732584721,826.162314824407,663.907474742095,627.192908082487,626.930138803046,597.01388518867,517.786777450563,552.770966848411,522.360618086674,558.755679474105,493.864357035327,521.995969756544,659.838331569164,706.118369083919,646.152626189641,604.446023742642,590.617826302985,607.93809274403,535.035097159366,534.773528675992,556.179550336589,511.987949788372,527.882033861461,538.951637249027,730.730776881275,708.081429794306,708.939760473103,720.19713504672,725.225731108816,649.180705651328,522.921332777543,542.094857883697,538.301874308702,572.24590041877,583.770753159367,610.139376959242,1025.20940885148,995.289751537866,988.1162873226,549.368961385858,517.40040292103,546.787690705354,542.541150861978,539.033101059542,544.354561170635,784.982774130152,767.885506467849,752.50730576174,1019.36223051225,1420.52729104847,1401.64793644286,520.910854093681,543.504293208936,571.601387018061
,86.5,349.466209414343,500.89992655719,492.264266505656,913.183518195134,769.930758402726,769.763487089787,791.042863591183,618.918596071194,1350.67359560586,608.945273696047,627.18554196221,584.692943193657,538.249997724763,551.619765421297,532.199953805987,1383.52560090211,871.112082080725,817.170706728413,795.579991300231,676.001295244593,685.033478401197,803.243826106414,805.16241001052,775.310044052317,554.65083889953,592.91786803166,537.928600150949,932.966464362495,855.737085928648,826.452159261698,1072.11734572036,1217.83299560027,1079.82350465735,869.489851380384,797.417761091132,744.405841292071,570.130172235457,560.344260307106,554.483967013884,912.697054313359,903.776151273687,936.90395432048,699.568365296544,849.59452172434,675.2962468494,679.752456953358,674.154313509443,637.603149249914,567.830928951621,604.733929859573,575.536097624761,580.141896729139,511.095917970861,540.181800067707,701.551620804229,749.05783689623,689.111494901677,676.358025048644,654.646496823669,667.010845972309,594.626613594147,590.130587093884,618.962386250152,547.473554167513,561.378944543977,575.384604163106,747.944434476932,726.128129997696,729.680247577924,759.904281175604,779.706922930249,688.728018408919,577.698476618273,604.308694938261,602.161870911393,598.25127657905,607.214705104217,637.554261890904,1172.86671751452,1137.95334098194,1125.81715375299,568.588020533085,534.546183546621,568.875808307168,600.4592841299,596.731272083133,601.778950623118,821.599861880772,808.634703497824,787.398574411376,924.912002285589,1350.15246543935,1309.56425301993,534.121104285742,556.370790024539,584.522718048073
,87,390.050029255832,556.805347681921,548.139761271235,988.165121742124,855.624163521454,854.235925617285,872.771505914699,686.078235358921,1396.17267671335,636.002944055126,653.777287266689,661.845816277109,603.593895120635,616.252084676536,589.553182341035,1315.65801428046,912.989167577345,869.869663826937,839.940990603311,722.002627371122,734.970304127957,842.640715248634,839.068023930772,807.59588450775,622.295251852676,666.067113588066,599.7312729459,967.125948733392,906.151308882687,880.217531479926,1215.73805505223,1382.52988344675,1216.19401759068,924.195231572998,848.598571357746,790.143882458917,640.954618896795,632.339968651307,625.432622620056,977.123263695332,964.172244962801,1007.01289006503,730.213791561431,873.279204846365,707.878712848633,793.514859603879,779.433479295733,736.700779082517,643.484838013812,683.450060462138,650.002150704308,624.125382934664,547.912475283836,580.265693067508,785.281693809189,837.1800786698,777.588548289931,856.650938126621,815.520302165496,811.39790503416,679.236231733512,670.018730487075,707.83396484356,610.826176935794,623.116574213044,639.244053317809,792.445520884851,773.620671057945,780.783148517463,800.986618721437,832.867885461922,731.369038813704,661.251803362352,693.855719725433,694.421119594632,674.09238540328,681.333859796128,716.862846056831,1287.18601476871,1245.39680761255,1229.76655385963,591.396177785102,555.827440882812,595.672255205704,687.592673008679,686.226787780885,685.075227864655,879.526218595835,864.756969555542,856.392555039569,790.391331344047,1220.75235057203,1157.71391439476,552.050285043485,569.391323213661,602.045223460201
,87.5,456.697648438366,620.907374630745,618.652383350188,1112.36263828538,1008.63047599479,1008.74407608657,1011.16169427088,817.520881489914,1419.14335171059,664.820812509932,688.056668145598,739.125814548762,686.01682275665,697.157478274637,660.506450418019,1249.58467971069,1017.31015779263,1001.3551507785,928.361821276316,832.903794916984,849.182071660134,908.186000906929,902.347502664342,866.975719376434,708.162602370571,756.596189172663,678.084699195894,1071.89475930996,1048.00331976748,1033.86198695217,1327.05646396516,1493.64398975975,1319.81986082953,1034.56366902851,963.235990111968,890.111252688781,730.145666493302,722.203815470742,715.313044815435,1008.00892138071,995.572809802895,1045.1916235005,849.160237377969,951.998852435792,833.194364874062,995.266852025385,968.329083729405,912.801581551775,739.940852854133,785.992118219519,747.174269168441,737.303391578204,641.589525017849,679.54335346416,951.527629305971,1002.95321532236,956.931089766633,1177.66563010537,1113.20310648321,1097.60632648888,785.628472567967,773.877678069095,821.065588554267,751.382274415061,756.790751104535,785.66544927373,925.134045111423,909.260575403364,925.761551163067,835.682502070629,874.773904370024,768.69377129091,766.91535066088,806.735492865451,807.456944637972,814.438113758758,825.313759236049,864.875326386722,1335.82008159939,1285.51073624813,1273.43713988451,619.088648284377,585.203749198248,628.172400596035,796.684172462355,798.591545008306,788.775074248011,990.512405012623,965.079580115809,998.336357914983,665.861196152399,1084.81098505225,1000.25390640285,577.379433448028,590.504903639509,627.701613169731
,88,573.32413642002,703.385753414492,705.423763537571,1294.55089710284,1230.65505406779,1233.05927962972,1229.11792089586,1036.17259042487,1409.78092687403,702.493797588268,724.138409304724,812.464568976159,789.569551991407,803.628436266293,758.321894154699,1202.76386216206,1217.96837904143,1249.0342288325,1130.77374594498,1062.13795832293,1085.41475262326,1076.96003730118,1069.05540997491,1025.44650712682,821.446551512484,875.154091664256,788.636290833485,1291.70785830471,1321.13049794205,1313.73518763406,1361.0641173445,1488.93413994034,1348.6641048602,1284.75887950497,1224.97556562915,1133.96001533343,846.036205577173,841.217579624824,839.9973272324,1019.36886959163,1006.84049669524,1060.020236123,1128.6179314122,1175.17511439066,1112.41668133384,1311.18524738162,1269.52827610907,1192.93577223856,863.669599178086,924.371530181264,882.092631367943,970.963822754698,832.604707799414,878.808094355824,1241.43755210077,1289.06665804679,1260.45430670251,1581.08066910529,1497.39592141177,1493.67579425551,920.812850868986,912.656079530146,965.097504477465,1044.77153837678,1051.6162990418,1091.41420204036,1222.51466559765,1203.14131438209,1232.60945347127,866.844405585975,907.238641918848,802.849934290966,891.730562451186,943.147637373957,944.534742532098,1012.88864438029,1033.37412267365,1072.27972415255,1320.27204336504,1260.45700524066,1262.00671508888,658.611226448445,629.937744702614,671.140232828669,925.080235481124,929.28732827723,911.981901116866,1181.47433773877,1142.39243180588,1230.40866211914,541.702031999617,916.459662042907,820.458750292265,617.996053690546,626.9642183742,665.241581711502
,88.5,762.026791541403,843.742665980493,845.540590975492,1518.1613316632,1500.27784727925,1503.56324447787,1507.64338296682,1307.73226881426,1367.12417530199,784.967570178664,798.893375559308,892.447996141019,958.481300857029,987.59584976004,936.665860569752,1168.30009425862,1485.93975092156,1562.43491601935,1424.46776867946,1373.89726217647,1409.81749968468,1350.59170812924,1337.38382425937,1295.4698511738,998.417950801115,1073.4441714305,983.709564995473,1560.56460517026,1648.49573550969,1643.67536480784,1335.40956362985,1396.43642734209,1331.73187364759,1612.98892653189,1580.21910364401,1486.89868597405,1033.79104159968,1036.27748802082,1049.59784612922,1038.07065315682,1026.43299171682,1079.58965958098,1503.86314137233,1491.07611318786,1473.04665078562,1695.34569021069,1650.76931996905,1563.11169473285,1054.97256828938,1145.54864344387,1101.2045831842,1299.37322898507,1109.81544249466,1170.35758033272,1604.06627762804,1646.34807956938,1630.67216151813,2003.10700702335,1902.23185495065,1927.48323152355,1117.68806866614,1125.62312130856,1177.97184258409,1438.56779564986,1462.96555163664,1503.08128447879,1635.94996065338,1608.87465222125,1652.14148962897,916.915041978244,948.19280303848,851.038984110361,1066.03222343712,1130.11320321474,1140.43033965873,1314.83728070765,1334.63513389254,1390.35939024372,1290.53837351127,1220.38824790735,1243.32274700844,750.41474246584,726.636055445037,758.928908098738,1098.46072778492,1109.2619105626,1087.54644674834,1414.25893878211,1357.62340904992,1510.99789364843,421.314914852701,746.807943865267,648.573434931528,738.618804813883,730.713844798044,765.243553522037
,89,1149.22504823349,1175.97292901023,1188.14314442108,1718.32817232639,1757.70823669417,1760.61296590243,1761.94784357317,1558.0651704813,1288.12066580092,979.677989461868,983.811016091674,1056.16187867685,1336.67186813821,1378.43509826908,1326.13810490243,1131.72464298199,1735.25258416658,1850.91849052482,1723.01611848112,1691.85830869376,1742.33062738457,1624.50520282865,1610.80169940086,1597.72466178203,1365.53750495971,1472.79312576216,1377.62776735079,1795.43076326366,1942.12420098455,1943.21140951115,1308.7689324497,1300.6811045539,1322.11492048908,1906.74457826652,1918.4385958469,1843.39505817931,1399.1325429641,1405.20058985503,1432.03546279261,1076.9156342379,1070.27177890804,1119.38273904482,1881.63201841629,1787.8559810341,1829.40258702681,2044.17585447732,2017.15366727141,1941.36397670178,1390.48568430242,1520.03305091913,1484.01715406635,1693.4875329565,1465.21991203817,1547.83578294696,1942.01350039984,1966.33517448617,1973.63896770568,2373.4502330333,2261.07939674173,2330.17001639322,1422.80497704446,1460.98712900013,1501.51963955718,1841.30437453883,1883.70560203015,1927.47995472378,2049.46534854762,2018.9920402728,2076.09814181681,1060.37350019327,1057.66751069646,962.78822192813,1338.87112766854,1403.57682270168,1431.31058120348,1673.76952985178,1686.76580724592,1774.02715537709,1285.98357359676,1204.78572486174,1252.63090162018,976.410447957826,963.419114150281,976.986128116298,1366.09788960702,1381.99381930417,1362.18436880991,1622.67418435835,1543.07988771347,1775.16673713013,335.732968323847,623.533248000553,530.485371097963,1077.85158314717,1048.76055431711,1091.18701272989
,89.5,1690.25174738084,1643.66412548478,1675.39291178614,1804.17796830344,1904.03898488266,1903.53384411432,1896.01023539783,1722.84367241353,1142.89010452288,1298.34620900672,1282.617243918,1352.99973227991,1844.82568613229,1886.82846467056,1841.77221318832,1043.26526005311,1887.22814000936,2045.10593284996,1970.23878932477,1965.4289701913,2027.82815905846,1852.22149019118,1843.98851861866,1874.60446038347,1849.71964858268,1978.92179761833,1882.28031732416,1945.93602993893,2138.39223786084,2138.75929422069,1279.4307535474,1208.45645657668,1303.59615688324,2128.76830713244,2193.80447771975,2153.37558731346,1859.65904112983,1854.99720952199,1888.7635037041,1126.63157987121,1129.77794005271,1168.49257089737,2214.39467362711,2029.7961594252,2138.43056258112,2271.20043140862,2273.63432269792,2220.0831645628,1782.64427449151,1945.07995717471,1928.46188746349,2114.96505158911,1869.5406221405,1982.6389583119,2183.79740317499,2174.54710527786,2221.29935716179,2522.33024256598,2416.97755709114,2556.64047529553,1746.40946224996,1817.95851027406,1832.76687447619,2211.18336925495,2268.5764613949,2319.08640175729,2380.34891205928,2350.90681953107,2416.73866662192,1332.42958956575,1286.28829781596,1199.97267104002,1626.56284409511,1674.63650779995,1721.06372164343,1950.29852958839,1947.32829043658,2080.45432147162,1287.50755920753,1198.39624396839,1268.59542023459,1317.06053868032,1331.71503942617,1337.70197780154,1648.38529310317,1656.74282764871,1645.69036737572,1747.75479826063,1653.13708875647,1948.90742667007,274.890525288391,506.826319387588,430.474020749864,1582.71596391867,1549.70454506457,1630.69305203963
,90,2191.52330909638,2075.66820545265,2121.70423962262,1748.22052550373,1904.51208127278,1898.18474673333,1874.92698721001,1749.10739866188,934.693761085554,1652.45575847336,1610.85584317183,1701.76535119301,2296.44675425405,2334.21128798497,2304.16530695802,882.540213742772,1884.62832808711,2058.52138118818,2092.1380322236,2109.72517968439,2178.05201055711,2011.06260788709,2007.11159765771,2088.34211436119,2273.32857302295,2416.14767090518,2324.11115501494,1923.34222738086,2124.94989384498,2109.91901032751,1229.9938566125,1114.48959606697,1261.76447176137,2187.26631380516,2307.59111189712,2328.72346323297,2255.69855146209,2234.22222469166,2270.85799468536,1188.0228973435,1201.22797194854,1225.32481047412,2377.58338700832,2132.33499676687,2265.83126442663,2307.06321316876,2353.97810637929,2338.96418572753,2099.79549576591,2281.83546208626,2288.78502848899,2411.76552477418,2181.05474131596,2327.55074551538,2255.08607795002,2210.16838119429,2286.9046089055,2360.53700040685,2271.93175169997,2479.47161116822,1982.02135761193,2083.29629437691,2068.78403019902,2420.17897193009,2508.49703867003,2543.41578322318,2513.58522595613,2484.93385882399,2547.83176925148,1639.01857285604,1561.68965044589,1501.94788187876,1833.40875701861,1856.57236380895,1920.85067979715,2101.29871129231,2060.76028657946,2265.23743729666,1282.62157643838,1192.92725099402,1277.46741677749,1685.97722615862,1737.00470579904,1747.64045604913,1849.45714037377,1844.83451915748,1845.87704477355,1739.16990490174,1636.63219425659,1966.06975119238,214.862305130406,371.318103501783,319.026524666737,2083.64783713546,2055.71009448474,2193.64246514689
,90.5,2603.65652683488,2438.06466934033,2498.97565563325,1544.18655971061,1749.29267205854,1737.25921218555,1670.17507370963,1589.55278645423,706.098137836975,1967.16844589339,1906.00737288927,2022.03857640452,2663.86229283558,2689.07644976136,2676.47630028206,675.457669610479,1666.84027569099,1826.98435327766,1948.91594472503,2000.64283768626,2063.41880398882,1949.7735181172,1953.99828632875,2096.30671008672,2604.53496989778,2753.65640958554,2662.60110252903,1640.40821685165,1822.81024569439,1799.23412148521,1173.22341163302,1046.49237889004,1212.22399889432,1938.06099141844,2098.02771492048,2193.54420191078,2552.06448739663,2512.35476323749,2541.00378683633,1257.16967509039,1279.54554372836,1285.78421411335,2214.43460261849,1926.97999318454,2079.85503526247,2092.50422051461,2188.76445696305,2230.17599337125,2314.81230288692,2496.36456987295,2530.08474975756,2442.71111804882,2281.75038648977,2451.66212218431,2068.07375767041,1985.55591021775,2092.71109335497,1979.89395075667,1906.0298904511,2136.28794768649,2111.07704197283,2231.57184070769,2191.52840762325,2299.6860779245,2401.53573044966,2426.25435226006,2297.78662816312,2278.95251463592,2336.21960808566,1906.79521105501,1804.56604356572,1774.37655377855,1951.18766244661,1942.19031260916,2020.96430911956,2121.89707189155,2034.94904317648,2317.60218743261,1288.15394237619,1201.74799226461,1286.3407340505,2048.76928109102,2132.65455621734,2151.91038713404,1962.80943616772,1944.67033653287,1956.40251993781,1551.63198225,1445.36271554495,1785.85179840557,163.851318060399,258.476625538419,224.766494141956,2524.67165954902,2503.39793516611,2700.56431446652
,91,2854.51646376619,2646.55227903655,2725.1199544173,1227.13743375208,1466.41344787726,1450.10095922354,1321.21752620951,1299.62946251284,482.042220830226,2161.97982949414,2090.17134964033,2252.05284929996,2847.0031203386,2840.91819167622,2843.31072983388,457.723999399616,1302.78898833119,1448.77451897305,1591.60137169786,1693.80142600163,1741.47849891053,1641.40586528192,1658.32754159907,1842.96846624305,2753.14273095466,2878.33482859648,2783.41403586436,1224.02363970266,1376.28084433764,1356.83256780552,1107.37502973496,993.941430190155,1148.72871450413,1497.16339025512,1664.27724969089,1811.21672693758,2653.84466648351,2583.19077561222,2587.39316418791,1293.24740728718,1320.74412766853,1309.2166693659,1834.82237824919,1511.1926911863,1707.21798609646,1702.071779371,1824.64883450656,1904.22892716433,2337.874235145,2486.71479931821,2539.9561998514,2255.07282133206,2190.56593502,2368.96155575494,1701.47728924906,1584.12249498494,1728.72766855601,1486.06642235353,1429.8072491192,1647.41465867382,2053.40056076369,2169.28946398888,2107.81261501867,1941.23698073311,2022.72467245173,2057.90533909307,1826.52336155942,1823.34776904722,1873.38391257436,2104.36231150372,1986.74052900356,1986.49330967404,1908.7608246552,1858.37113330187,1935.42614712658,1914.27900080802,1806.32287052093,2123.20432771461,1256.15057327094,1178.37431339983,1248.5486424495,2308.27058497161,2418.636094454,2461.58699770741,1921.54721597912,1880.88370809778,1896.49125619695,1251.72116203525,1152.569784891,1478.51210615182,128.192358624689,178.775541750377,158.679540288876,2781.25515903021,2789.02601327757,3050.61437763971
,91.5,2630.41075319321,2405.55839416263,2482.66596473054,904.618475152578,1150.45740363642,1131.55949415785,960.186641336397,990.076415264968,291.374227000936,2092.55446680691,2022.18072247962,2240.47778189768,2541.80002042472,2507.5331353317,2522.01982636234,279.300266081662,936.721848220631,1058.11056786265,1196.11377434413,1335.87585946571,1365.02902298645,1247.75168115163,1271.68225009869,1448.76052444424,2442.8037943027,2518.24049055305,2433.45952425016,842.859457569242,953.319041682336,932.629415627172,1007.02490044691,914.793687087059,1045.62331828903,1065.20244827908,1214.77208077047,1380.22190407429,2325.34000780039,2230.12585350937,2212.23427172372,1258.89257798039,1284.70925505217,1259.99567339184,1419.80746590171,1102.85555137935,1306.27923273869,1269.06181530248,1391.24781500687,1479.72507661404,1996.87045020886,2090.44229813449,2145.20208919903,1902.9611764671,1917.11720012701,2085.6110261209,1312.32185895192,1179.6636811916,1336.4403642839,973.127884471526,937.031210059094,1120.54249027259,1695.581132039,1781.96485421735,1716.74541273656,1519.56207844423,1584.13848071547,1617.27664020212,1317.42039351759,1319.86490467979,1354.08714297739,2073.50253597126,1978.99169836263,2028.12533856782,1589.06472392689,1511.64203336637,1569.92301458209,1529.38418623065,1419.11752344355,1732.21013418063,1134.1528111854,1072.70079939165,1118.72571401691,2276.3338149085,2399.79823603853,2478.74990402258,1607.62777813141,1544.90722620509,1556.76481333088,954.384554378643,870.973454055838,1153.1100256904,104.146366288885,119.400960592816,110.41077699611,2583.65833148707,2628.23705729617,2929.88530205765
,92,2002.61538897249,1811.50549940595,1869.10329951664,633.526605382097,857.854772322389,838.219072343262,654.758452818657,707.001480380174,163.128263623984,1731.32758470196,1676.7061588235,1912.45727347377,1885.70141314429,1845.01412338284,1864.62835880643,167.039559117659,609.948579223001,698.333519029774,811.364518069932,960.011141880709,971.101277776086,853.24238863575,876.917219022548,1017.91481965917,1804.03912469703,1840.50223223999,1778.05013067959,509.354320911812,577.045124870326,555.948816939884,872.288426641969,805.616250382475,907.839407753324,662.972749685739,780.903971546908,940.467170563771,1703.63138674937,1616.38683496682,1591.13720788769,1157.32429522056,1171.74668691701,1142.34868137412,988.560256778987,717.26855678248,892.733305510305,858.469352826514,964.406492846249,1046.29179199159,1437.57499032019,1484.19934018858,1530.26267796612,1410.20154482214,1474.47330144365,1609.00549349625,941.344994285288,812.046882400552,955.165138266598,549.228308088055,526.756398074145,656.050088749734,1191.14010303732,1243.33163624193,1194.70680335833,1063.67193142443,1114.00074982262,1135.98786213895,834.604350765991,836.168751216715,856.365142452586,1727.99440918971,1672.74794840033,1760.3144221786,1125.43363882811,1050.73056414703,1089.02368025918,1134.98283792265,1033.6513109123,1313.97559696526,957.910345394446,915.504753701545,935.126884858407,1974.42945659975,2077.09342637446,2165.13648198088,1144.87341572602,1081.68533497565,1088.35978048007,684.821651619928,618.747256637943,843.736389267529,90.3665606442935,86.4187268242849,81.4589866555244,2017.54365621089,2069.51162761615,2345.33920259782
,92.5,1367.73470266491,1226.05650420253,1266.27480838679,422.554624900917,603.421158434259,583.467035565756,424.69898541712,478.821644727096,92.3505490612325,1255.84223533631,1222.7644730944,1432.66702149342,1260.28550732346,1221.77403639669,1238.3311564141,112.119415541838,359.318885298022,423.441372312496,484.233073794319,617.234439926952,614.344702027178,494.736286534494,517.831433566467,617.637673647626,1199.23773676364,1209.66181536965,1164.55880210219,262.390898562296,302.343263356656,288.487301997384,717.191181616835,673.755109769675,745.687697994701,338.588690500982,417.144584615738,542.978969271714,1118.21926943959,1052.03219630453,1023.76827146413,989.535168546782,990.725774764027,960.798216518083,600.260159585027,388.295322644561,532.360063039817,524.90967739597,602.470766845657,664.957415816985,926.484239046682,940.092480015921,975.508125140066,937.229456425698,1020.13812877395,1109.95947914413,621.542763314498,507.928741337717,624.77822187622,281.017109986199,265.499525434224,338.25032759598,749.391924611044,772.394866539269,742.205236287478,665.65352882438,693.071859430448,713.551708382949,448.868517342646,447.438381527053,459.29783794427,1260.59355342721,1226.53061479772,1311.65203426541,716.400834185969,654.299305907581,676.089276679707,771.709302727623,706.867708250262,906.99653939271,768.896435272282,741.525869134153,738.773563879862,1566.01453224166,1626.99552971739,1701.57464598261,731.697132334558,679.944043672738,681.91752205044,458.387248594494,413.544528960617,574.319398243429,84.2956166412067,77.9580419092342,71.8494495748503,1409.58424513331,1451.98904690419,1664.40515209294
,93,783.281593598601,688.869424843538,711.372838225399,281.307167383309,407.509389129316,387.646098547247,279.978296657573,325.822579352323,54.8684721173901,798.768577857582,785.656275070991,953.694191381358,690.180203421383,658.503872826946,669.941713697729,90.544824486253,218.574096601304,266.129026605089,292.028604482778,394.556227616321,383.142347124334,251.577369457877,270.189781772412,322.784564774289,654.905450546757,643.668684966969,616.113736628847,151.735912225064,176.561276628316,167.75248848049,550.922145085163,525.944957919685,570.914219369957,171.495516920776,213.936799017206,291.334986158497,598.624062290088,552.10049770997,524.928629049426,757.087068062467,749.200164376207,723.744159661148,357.443970873646,210.374466536148,314.193334771172,308.454826642849,352.029953580939,384.546523218746,481.868354355825,472.39756661407,494.119660023003,605.474328664534,676.753009184898,728.535155421888,412.292926371875,322.551835327698,405.041600688459,136.897087724884,128.612882427576,165.273765250506,375.579979851307,374.171831668613,360.900870830941,433.399148950999,447.151180940218,463.187051100059,243.159819158436,233.889463953689,236.462225814369,818.530699491432,802.731897539308,872.308613509252,367.14305199218,320.590494480068,327.023275439338,469.228712701183,447.370062326918,558.18994750017,556.740653078227,541.001532797344,525.352021733359,1098.5836950522,1120.28645547161,1179.05954070946,377.985384733247,338.336961299661,335.549084519187,309.875148397994,287.728807131937,385.235257747493,80.3943957755484,75.9556816891114,69.1388236203635,840.347477673134,874.463655031745,1022.60053326262
,93.5,285.630662253483,239.380094443503,244.503160869249,203.84602911025,282.615712194832,264.148349738841,206.289785841357,233.778520421968,36.9720884877246,406.076213462555,410.143513248898,525.399127429897,225.700580589682,209.129299695265,216.253538546631,86.0633957552135,154.79847855031,184.885057368007,213.568612125235,277.430286574682,262.651246634245,143.080017894368,155.669717940023,169.055354018689,217.025336427071,198.041183462053,188.995430036281,123.629792779254,137.705377255491,127.382725688089,395.009862234082,385.276691335517,405.404138925087,113.927379403449,136.463513339884,175.634696983086,189.857977132875,170.34872531922,152.589137688178,516.344252595322,503.195427921019,485.66568043243,232.724225116429,148.796139365719,200.487535728823,188.006560667921,207.972583013134,217.998561419075,148.381318767171,132.713592965419,143.342695083935,383.996022887893,426.651054980732,449.162947349972,295.45881574691,231.599309122317,275.412152192996,67.7733233302102,64.4317027779737,83.7703982796544,111.491889955748,98.4173999994885,98.7898584333536,320.149187962273,338.689763597627,338.199412755208,172.257225964848,154.36777089545,149.918194089569,418.155701407551,419.119938969088,471.731700433915,114.504036149391,88.3584611087833,87.8154036505218,284.935922397533,289.262356104148,338.105935422166,356.116593859591,348.431614895957,331.165934186006,645.616138727209,638.37496908248,670.319440029427,118.504589444304,94.4949402035564,91.5738294058082,224.694763965466,218.593733494858,268.719851703532,75.1913100266144,73.026538567528,66.7037439942089,366.713443795168,384.375190629216,465.046109116299
,94,44.4768355723326,32.0885030153377,29.4571469157423,156.960757936374,201.878873090011,183.658459285105,172.13873942327,185.764114842808,30.4853643829913,168.487439987941,181.890988852008,246.94391380017,25.0308975651999,22.4121853962342,25.0472675777744,83.3231468694754,121.659398162241,143.51705321056,173.566965172307,204.632646274676,188.837538401793,105.799562363595,115.601276673962,113.866402182663,28.0771872936876,16.0721823571006,16.5668725248681,100.049513471278,109.325912646168,99.0518743245253,296.615010810725,294.01144302338,297.17605060882,75.8555563187476,88.6921813669934,104.050306222721,16.3778065543038,20.141032884324,10.5447804961633,365.162878600155,350.235465102203,335.575560623021,145.500663486764,104.920545955419,120.589922788662,123.42499728262,132.155233230773,132.343517332736,16.2280111126977,7.11244666293283,14.6929578520168,259.545214488832,281.53160802355,284.112354730742,220.669120252425,173.072228902459,191.417724300987,37.150172483695,34.7576167879172,46.4080371903008,18.1819901831465,4.95579244121109,12.4519221813598,256.21479303254,276.007813995477,268.542872588656,140.443845551627,118.140072246037,112.368493336746,157.189024107965,156.411372240094,180.903983994488,20.3200028140373,9.34594076658857,10.3508840753033,210.410861033596,231.179847515936,238.205495318038,247.779076557409,243.136805064685,226.12108678044,391.866782245292,360.616689872462,367.705913542284,16.5459010885382,8.17221924569583,7.77016132627978,163.120874430759,168.684618003555,186.020187311976,71.5562092524943,71.1548414827106,64.9894544426049,134.480628650493,130.550391509876,157.280764880742
,94.5,24.4661839765539,18.4881915945407,18.6029481165921,120.51384116798,146.885164853519,128.989299894408,135.040071791039,136.766243779256,23.7108502902222,80.6299239401844,100.168897650619,130.824328899585,19.7985767694965,19.6800190057093,21.6839652985389,85.2399732581586,97.7206365540217,110.83642067783,151.469421403851,166.764025961961,148.571977918884,86.8843173555154,98.6372466405297,94.4152794151323,28.6757442104609,15.6609571805078,14.8442136413616,87.2938745718209,94.7331450879846,85.8361337897219,200.62716970914,208.490125208254,192.659656718614,52.8997212541819,62.2036652722655,61.5476699161486,12.0954012049569,23.7915375145367,14.0360480537012,210.021501301134,199.840738719316,187.974880308813,88.3715825230132,73.062679580407,69.5766252544172,84.2438079600075,86.2451607672319,79.9337746113164,17.8804510541588,10.9253601194162,19.0412310695248,227.672309522645,237.036465801747,235.01037332524,162.719306074957,126.812569805422,128.466840395825,27.1672953977373,24.4008784018436,35.3316655400874,24.653211058651,14.1742947686953,16.0987746990968,229.946906944849,254.219162980075,241.418715021804,127.327649765806,103.389453344021,98.8005359378141,60.0421622762177,52.2118415567633,51.5270099159347,25.5979171246445,14.3864010696124,18.0702862627835,176.931256678004,207.898376750781,189.22237216825,148.753668518035,143.261864391206,136.099104434015,219.628048429711,188.080974714343,176.55597885884,16.776012490181,11.4422076748382,15.1146071457488,115.484645074949,130.91276494869,127.999936863902,71.5209356669167,73.8740273129127,67.0951458638863,93.7048434489711,86.1550326651117,89.6228804865643
,95,10.7107419508374,6.65959227154508,8.26200202762595,40.9395326496146,49.7765208965021,42.5834234516789,43.0362424338923,40.482516457444,7.47285560253681,24.6021863773187,34.7981396373851,41.599902139541,7.83312288737238,6.93186022310783,9.07429041668524,37.2183388872951,33.497332751974,35.772411500943,57.5947382229118,63.8808466862607,54.959658748416,29.8789103233469,36.0437198696287,33.2658810959065,14.5944484637431,5.68752516237271,5.01762679573699,34.9193613687928,37.6976414626205,34.4345373714938,53.9493510685346,61.6849304579208,48.1712404442109,17.7432016451496,21.6420283466288,17.5376970448219,4.99696398728702,10.6291679486158,5.78260479490666,37.3280303721007,35.9933122089112,31.976115353285,25.3226561858031,23.5759441525985,19.4041252229226,25.7335284670613,24.5470386473744,19.4346107644036,8.40251745153296,4.26169572265485,7.58992667070663,95.274549682235,97.1268757220437,97.3737946049253,53.3652705102787,41.0025951979876,38.6703802886848,10.2870021540444,9.32999640813637,15.0491197226572,11.2711853574189,7.47878534980282,4.99912948711881,92.3379712729788,104.820142496493,97.4161452084738,50.4105685141075,40.6001876928467,39.713686814992,15.5466494876117,13.3207144376205,10.0889377490589,12.4129075276815,5.88138705241533,8.03636667870558,70.1836921730012,82.0412875472128,73.231210125494,29.0496627899424,26.0120812158115,28.0693301333985,37.1136263723992,29.8969487827554,21.9268032647256,8.16506003755728,4.10679005103191,7.27000122523987,36.920172251764,46.200482968625,41.4975703334245,30.5838950488697,32.8204538195035,29.5653457307169,35.6482735687255,35.0323065469869,33.7828248688868
