,Cycle,A1,A2,A3,A4,A5,A6,A7,A8,A9,A10,A11,A12,B1,B2,B3,B4,B5,B6,B7,B8,B9,B10,B11,B12,C1,C2,C3,C4,C5,C6,C7,C8,C9,C10,C11,C12,D1,D2,D3,D4,D5,D6,D7,D8,D9,D10,D11,D12,E1,E2,E3,E4,E5,E6,E7,E8,E9,E10,E11,E12,F1,F2,F3,F4,F5,F6,F7,F8,F9,F10,F11,F12,G1,G2,G3,G4,G5,G6,G7,G8,G9,G10,G11,G12,H1,H2,H3,H4,H5,H6,H7,H8,H9,H10,H11,H12
,1,100.700486580529,144.981050527453,153.718899797522,-123.893533723534,-101.681514151274,-146.240320129295,-98.2303683740138,17.0733918773567,-34.1082890054895,-90.3976460331669,-95.1430134726652,-238.348244083974,49.6526596028425,56.5571111004128,98.1154411264861,-36.9767959111141,-34.0682048966319,-37.5987961830087,-199.601519298034,-130.519695344899,-107.431305401591,57.0863488523391,46.3170828265029,-128.150793040691,21.2401414251217,50.8834568791799,47.9620290326011,-86.1327428753903,-88.3285900343908,-75.3442934928262,81.5507311511647,36.2751955772965,67.0856662775277,-35.5374712276998,-16.8726799465221,-72.4402398729453,33.9561422910992,57.1008344723323,55.4015840886623,37.0162111926165,81.072552549691,25.3219230049363,-52.9246530210758,-13.9749890373714,-22.8177669502456,-39.4403940460606,-11.236281039206,-98.4505091400397,18.9409118684607,54.5752143347845,45.2615172061178,-123.977789423096,11.338077160226,-48.5958313012379,-27.1258170484853,-16.7196125702849,38.8115494284139,-11.8874894126602,4.86229364731389,-34.5636000907061,9.73988656725942,33.5325127397746,83.5218965693348,97.3189916354186,111.382288048153,-55.456242352906,-105.662766465035,-34.1471960682975,-104.948200766867,60.0661012680457,56.1902348141621,8.87190600268605,13.3548694875717,41.0718527502895,47.5214684828034,24.0287603924007,-110.257244483077,-95.8042672211359,27.9324879041178,20.0829675148325,45.4389614467309,97.3392890148407,96.9508686810022,-14.7722785170699,-33.1050873118229,9.73766944589897,13.9723694440991,-86.6764136072234,-113.328558954141,-103.442470895641,45.3428201399547,2.34629479485557,81.1302117500982,0.644352400306161,-12.22192256173,-88.4690025844975
,2,168.386632174771,179.984689004365,201.37317194422,-14.0273979836384,-0.554682916919774,-18.3871717888305,-23.2331683586526,67.2127363519321,-0.111226983204688,0.371645428993361,3.95885708410242,-84.0389732950316,57.1038631243455,53.6293316010269,71.0905345326437,-20.8340464093344,-8.25502700869038,-35.7624363372579,-44.3723352624402,-75.8687889438334,-82.7900685368531,77.7917755903509,39.0327328879466,-16.4571822947491,34.5646831849135,50.5107512745308,36.2282611538258,-53.3171115358837,-67.2266774974669,-33.2371713309385,68.0395751468786,36.6315523249923,53.7579248985367,-19.3188891399668,-3.43361552722581,-1.60393068351823,54.809486969787,42.7754704827794,48.0123952131471,61.6776100591651,75.4675931359743,2.31237241166127,-27.8257379027136,-3.64479757340177,12.5525749389135,15.5630035119948,-1.84832956646915,17.9604443107191,38.586425685673,50.0427814096465,44.0361043049643,-75.61153355434,10.0928268228472,-38.5399560984843,-38.8422280519753,-1.41813919894594,1.76733447021616,18.7773901860719,7.38468237303368,5.65636336186617,35.7403887161281,37.7741857459268,47.2656547735342,52.1751298125237,87.7661068120742,24.7209864507822,-43.6338569304808,15.8591868252406,-45.3810493171677,55.2504344347853,39.4214336983441,36.2814106777842,30.7886456800907,38.3077731768763,46.8108273419712,-1.35918725600823,-51.7292221373173,-22.0812290980957,21.2761378544346,24.2186859392932,36.690423310929,44.5417720829173,83.463022361695,29.630831602959,10.2287752996253,33.1762863569311,36.5948798262434,-20.4632440161695,-27.0083761500719,-30.1710595574605,92.0694590946132,50.5503318023184,84.2669026512958,62.5627282280439,34.7183280708941,7.65465970458172
,3,205.379772042194,215.1511555453,228.131432824079,-16.5091637815349,-11.5956592465191,-7.42309598034626,6.1909379233166,-48.6219988881367,11.8818981747809,10.6069256404226,30.7117062771558,-35.5235237843117,33.8155367796089,26.7213923337686,49.3977771524551,-3.6090614952227,-12.4772972381252,-23.1425656422234,-40.2913783779186,-20.8665827607001,-53.6320025526002,20.4208448201589,7.11346414630316,15.1883485251146,29.6446117712558,33.2915727935024,29.3440297531406,-19.7417748373282,-22.5500540442772,-21.0974278195026,42.5868672605375,42.6209036349992,28.9096061520722,-9.5590841651092,-0.646447973892464,-0.132671702195694,45.5663181927421,33.8771751640943,38.7281695113852,28.7348981327141,35.6304681656802,23.1153826108784,-17.674059909421,-9.004575302597,8.68608988400229,3.70179923153319,1.090784732256,16.0301768997379,35.4833904822362,37.905797407062,33.0949062704995,-2.97363181236142,-1.17804701091882,7.09723196742198,-10.0215542282567,-2.77032389119086,-17.9359794174579,10.5927383810467,7.60578684186748,15.5573160813383,28.8815538023964,30.1110657941972,31.9074891240098,12.7278243559067,23.7183019334298,-3.84966570295364,-16.2186760843088,-22.5309733904141,-11.6737772223023,37.9107317319467,24.7780269340619,24.9453010528987,30.7293400035123,28.8275145923244,42.8417131899178,-20.4677345036489,-24.7439102496955,-38.506738943961,14.7912815854343,12.123038354428,24.7550133549103,33.9553987034942,38.0382730015936,17.5656125362912,20.7061567330829,30.5983426459297,29.8009484115146,-13.5659966070161,0.224536022516986,-12.8230526236184,42.629616361628,51.221922676652,78.8888535063834,23.8578900225457,23.9677098063821,27.0919200506269
,4,257.047232434463,245.592440538462,268.323182985495,4.95388815073056,2.53371051167051,-8.03410091089609,9.9359126476611,65.4583533360001,15.4620800779512,22.6829861191654,37.2918555002925,10.6388244996324,12.7198523686011,15.1634960661886,14.5127411769472,3.6797894729134,6.95601529147643,2.78034718203162,-20.4902984070995,-8.20315502931589,-4.50238488393734,27.4978002508105,41.037826624939,18.9259089795742,25.2738227233704,23.0594544685264,18.422714378652,-2.33389364610048,-5.75293504509136,-5.62817649809949,31.9860661464827,41.7100232808771,23.5849366346993,-0.381673676072751,-1.28970817918707,3.33476497064657,34.5964249054232,30.2522630824515,29.269339384663,17.0069132658991,38.0838820721146,25.3272844468047,-0.594894405548075,1.12106977946678,-1.79358755130852,3.90054339989729,8.43466898663428,20.4978167508689,27.8143445094065,30.7070739430574,22.5554524851232,27.1955669110775,-3.17904620939771,8.81399806983791,9.42553566459901,0.789595843918505,9.86574089549686,3.88196040100047,13.7024452507731,10.2027195958999,20.9274948682278,25.5700599586053,24.8898965803601,30.7273277268396,22.5191700132782,16.8144066223722,-1.4657451940202,-2.60414413431135,5.31285962526454,34.2435048730385,20.5974931059864,28.7794741933712,20.8885890672755,22.5097153725255,26.3267040472738,-0.643623956444571,-15.373325627721,-8.86564706652825,17.3695194947977,9.95913623556226,21.5752591054206,31.208276053334,27.973087602868,15.4143946651693,22.2696046418887,19.5695069744743,19.1956541824584,-13.1764136996608,11.2087899880335,5.19256970390234,34.1519505838205,39.6419873275318,47.7326787230286,6.79664887056606,16.3630250620499,29.4741360005028
,5,338.941127345958,313.985928803976,329.988905482459,23.6908173726024,13.7168859634912,24.2013554026344,-2.06207533673296,-79.7160197529829,17.3590194863864,18.0969072621447,16.1549657000887,2.49943325020649,-0.910806148492156,5.38293191575303,-2.29669958845079,-4.8184219514842,5.92657201675866,14.9297231530527,3.11847678438244,8.13798788875647,27.1586009990406,27.6080345437877,20.8007168051081,18.4839026022346,11.7114536126874,13.9426600144379,8.85837403693313,9.60497614907945,14.287954278685,18.4359688960685,15.4683370393086,49.418871400514,11.6076867305383,11.2508320076604,7.97990878219298,9.18159759287846,24.8331964769086,21.2925710087402,21.3309832881005,19.324635932031,23.9813351235352,33.049139953142,17.9718715865893,17.04161025757,6.79017527975611,12.8126784611823,13.0440114803823,4.65240631259258,22.8231772910503,24.0766869342724,14.6363776664639,7.22321012930297,19.0529974565998,5.66937214137579,5.48320259534376,7.82321318618597,20.6018645678269,7.66740359814776,9.39464323458469,8.44267904807566,24.2740345243401,20.0173558971946,14.0320070398038,-3.57071061133684,13.0922054233633,23.8321132105448,7.14272047289705,8.10294057620013,17.5499730265165,17.115501773329,20.5239149759482,14.1172063489685,23.1441387116674,17.8499824097335,28.8087594370372,6.98155152041545,-0.760476261670192,9.85428712859357,13.896328291843,18.7396055458976,15.9749300029671,20.7732166522255,10.9942636988726,17.0839792847764,20.6882664075902,22.3413999872464,20.2979931958735,22.17496922194,-3.665508460208,23.4685453396032,23.365043706408,44.0891514562918,51.053456219679,20.3488492379656,-3.67120039480324,23.4562710465689
,6,456.179992290132,412.144883171468,442.580672283524,7.97439937945819,9.59592986405187,14.4384898531225,-3.81663154598937,54.5701848699864,10.3106124177584,22.4464423873978,32.2405905761207,1.68957040607165,-3.66194376643853,-6.71840708422678,-7.17608728146206,20.6572220768976,15.706285331491,19.2716798057536,32.3532609621689,25.1860902329627,35.0484716041283,23.4306099507357,16.410069927575,11.2732094480853,-3.12903291091516,-0.0832686398644,0.272524375283865,10.4689121238789,16.6735295367689,17.8247540850953,9.31389771930844,18.8083488307766,6.24359624236422,28.7391245234567,7.44550513706599,12.9932456746092,13.8323716330606,7.37293834150023,10.7694082297012,11.9351486227006,4.63226929126176,29.4636901278791,20.670772353933,22.7558258944409,15.655639474674,6.90199908322393,14.5295085265961,11.0345379762412,15.4710834102953,18.7048699409152,12.6923253223285,11.8618900304955,7.51118587788551,2.1752868112726,14.3706968650367,24.0100986658581,11.4584071834361,7.19155784316354,-0.29919816891379,1.47947088272849,11.3821360517532,13.1830316235901,10.8584187935285,-13.151519666375,6.36103964696122,5.32994165193122,17.2347507181403,25.3078382317854,8.76077119947877,21.8349010566271,9.4355177226189,21.7997160689429,14.5254900041218,14.9154324555002,17.1384652992874,10.9083781755435,23.4430120272027,19.504680755852,11.2068420885862,12.5720015857351,3.56046691003394,24.2375205553581,3.64817462955762,8.71455199011325,18.1561647137314,15.9484811794464,13.6181179170826,10.3105821136251,-2.46263875789191,11.8897143444847,-10.3499419452965,28.8301559349602,40.2942149065457,16.9857287956002,13.6370472480721,13.5617739554564
,7,643.779954934929,552.376321619347,609.836751619541,19.8826096104094,14.2063194481307,7.60803746095371,12.8392264311478,33.4633113199925,16.0021187367111,4.60271085579916,7.29228159698505,29.0483070652099,-7.66741192425252,-9.90268095158262,-12.7089157847577,17.1327015347724,17.6561026562576,19.2691998346745,27.5677910243139,16.064919405786,43.9194027613576,9.34377857651634,21.5157256769471,15.2312011188933,-7.55163156640629,-6.71618506331743,-10.0045200758859,16.1914548871537,19.1555614558729,17.925997725486,7.06464113129005,5.83822289652744,-0.685447166970334,12.1442476305247,11.7104601409164,6.30437305465148,2.04593227657006,2.13527019948106,0.394328622111061,-0.291827986258795,12.4998592159045,11.8553551349305,16.1781974828609,11.1390193163315,9.88224678030747,6.55860956413198,14.837670766663,3.36289594260779,17.2325571514784,11.7909143659463,5.34441703302127,-0.615948138933163,2.26519405440376,-1.58230384841954,16.5699226937613,6.66717358072856,12.9433460098408,9.12904313858235,6.08547178229765,8.75846808931419,20.2930855782142,15.2794323713997,13.1748157675347,5.16537521162354,-22.2727490627312,2.4279532152741,25.4379033017703,17.777394779223,23.6642648057459,19.9243498247952,12.137453861068,18.1998391386869,6.81637190909532,14.5499913103222,20.6608611631573,17.7497077895987,24.9394867826086,27.5650687513698,19.1422232185487,5.06025278342531,3.40690241233642,1.33634271904702,-4.0653011117447,-6.29934833486368,12.0221664873889,13.2378843711595,19.3319566570344,17.239747557278,10.3886985410281,15.8808776340938,-8.25225420632705,15.6934018433694,31.8990359972267,2.33733893265889,9.66087852263445,1.65300702336026
,8,934.24014222286,799.910100547373,866.928515265283,12.9268274090791,19.5042168929322,6.19210038189158,18.4286777547222,33.5447893928485,12.3375642911706,-2.8543690526767,10.0059207579889,15.8366788596104,6.08982691695292,5.48617390230356,8.95239447084532,3.39803230256075,1.39839967125772,7.03695610352952,37.4159124469352,33.7862344797122,36.17547124263,14.1662164091758,8.74530892335315,13.6584392623827,-18.0235277271831,-20.7374036228757,-17.2121168401918,22.1085595836339,18.8482862461242,18.2931040753447,11.5064887931312,0.0436297459928028,-5.09599795696886,5.35163347509115,11.143359044162,16.5516000960924,-4.79347081165542,-2.63478884906726,-8.09735180195912,-1.14868918827233,4.06571756226913,-6.03261135525827,20.5218552653478,8.65758617581287,1.62481420064614,5.56102147789261,8.65142457631737,4.10681076207493,7.50256215873014,2.43152794977414,0.50750409131615,1.17340261771278,5.62843039059226,14.1017744338496,3.13395088819198,2.60373464143595,17.6571246620078,1.03994900136149,1.72414660240611,-0.675938099137966,8.92818716510828,3.85647626421724,2.47084102571171,-25.6664765751138,-21.4917435820153,-7.28870390739576,23.3397776656129,19.0017214697436,8.91291531687421,5.92057228609974,6.51968658466922,2.83066479792524,8.68055435780207,7.27652576754645,13.0735781054382,13.4645272273665,21.5076089382619,29.0443662845028,-2.97314718871894,0.942214043237982,-1.99825618267823,-0.442737741306701,-14.2593076722205,7.46361404725576,14.7339010574733,12.809487926309,5.75479997871571,14.6450292741392,7.44190220140081,7.74242496750958,-9.05801265961964,11.4214479726525,10.223930131815,-0.0707129432066722,0.0227443322710315,-5.82548296947789
,9,1393.66101315621,1165.70280270812,1264.46741115746,4.43837893994532,10.1390602509582,16.3867424953878,13.1127826189404,17.693675785873,7.51231095208732,-4.31805291167439,-13.9104522765392,5.42568025364562,40.4877556726206,38.2681447321165,56.5754136886344,6.16845584365001,8.87993332376755,11.673276279962,16.858459527979,20.5290823363812,34.8288255632742,8.1793477391202,1.24535088655648,14.8790440967605,-20.185980634431,-23.0923910735055,-16.5367755480393,16.862525400873,17.2664370191469,24.3942221831767,6.24046029983947,-9.83868373337282,-4.35057019923624,7.68494596679284,13.9489330955275,7.11055703461625,-19.873519113431,-15.4424175777449,-13.7515822720588,-7.09600269040311,-5.82647478422223,-2.06830695159078,6.24787570024273,0.238579302525977,10.2769747801322,5.38074019494343,-4.96037267924112,2.38856458439386,-6.118321017163,-4.96686856080396,-4.09083482576625,-3.07735454959584,-3.27104018126374,1.13704885807238,3.28632307696716,16.6654029300389,0.164595551312232,3.492286175564,7.6191139361581,2.09912698006974,-0.336211583327895,1.62262092971469,-2.82280188734785,-12.4068453038453,-33.8179951050006,-5.85670028981986,14.3386703661618,33.3573153204015,5.92467522566949,-0.943961528496402,-4.67973920515306,-0.367173719980201,5.50353455413642,8.56933791929168,4.21256493048713,11.6651760915174,13.0211208458477,28.4917145845557,-4.85917420650003,-4.03245803967184,-0.612976604177675,-1.00874658230714,-6.33953771626329,-11.1854301171734,9.10970538501442,5.59644957965975,4.0039248974781,9.91552069620775,14.6291274988798,23.6871558567673,-35.4633779694013,25.8624446721096,5.55367018815559,-5.17928118197779,-8.24998225808849,-26.656396704082
,10,2165.22782668465,1784.50470147926,1910.66537962126,7.55593388625493,2.33136151031067,6.15216726496874,8.89916725928015,6.76186965326997,-2.18491095081845,-2.79374172663665,-10.0772931884112,19.8166865519452,114.133516735842,109.426364818221,157.451487437241,3.10014181979568,4.23587646322449,6.09311258175694,22.3277709144841,4.47129787507401,11.8687011547936,1.15464113880262,1.16809312614168,-9.77675796854783,-17.2148047900801,-18.0032094237076,-12.6391583851864,16.8815823454897,23.8864677800011,12.204103050899,-1.95904307961064,-28.161821802114,-9.33283095385923,6.73046759706085,9.72938574547425,9.30281633752202,-30.894946432958,-20.6906419302995,-18.3129719802791,-3.63657065835287,-12.1542037107683,-6.10837778389396,11.2458547230417,13.1792182824074,8.97792694900272,-2.16921448643916,-3.83115943433131,-2.54688772932968,-10.24684064958,-8.92024076860253,-12.4933031377332,-4.84708717570174,1.15345820570292,-9.32857303806668,-7.50445367446082,9.90471177608924,8.21819145603149,4.58909162776399,-3.81979182902705,-4.47324175502763,2.93076174371618,-3.28647424643714,17.6434179838343,-19.9908970352335,-10.9173726192876,-31.9288954480289,16.0874253806651,8.34412886937389,10.8766778678455,-8.91223627138424,3.57783000955988,-3.32669472005364,-0.108673137582628,-1.49973455309464,-9.35332684832247,10.6036720679513,18.2912501181854,10.4135762940023,-2.74452318327894,-1.07924030879622,-1.06800834594378,-21.8768905833385,-18.0374239432658,-9.42519743572666,-2.70346309142406,-3.33801043847325,7.60885227875951,7.88063268744736,5.45764131182841,-1.16177478093778,-22.4742935396171,-11.6502597360923,-2.49699581519417,-23.6198609549483,-19.0374488734215,-42.6992827603626
,11,3229.9033724435,2626.566000847,2801.098691357,-7.71726067155214,-5.27890595115605,2.28699184546167,-1.74779070037948,-8.5947671619233,1.84738178339194,-8.27828613002566,-19.1335896056298,3.29886693730441,211.440522272404,208.324701066656,315.007454952118,-7.22194476328514,5.04924333562667,7.22986358068192,25.8850906446551,0.574134241802312,6.89111926573969,-2.94567476143857,-20.8487796860372,-23.0513435348403,-14.7671033324787,-12.385141773495,4.12859994637347,11.6318368735629,15.8055247992252,3.37543061734323,-10.5432063544995,-17.9326353534889,-23.3103457997368,-2.00766026679139,-4.6927556292294,-2.27289541685604,-37.1137450209708,-27.1655468974086,-28.5357489499384,-20.8820165434772,-10.6624287954619,-18.7463227541157,7.57884920008109,-6.9208699978044,-1.45225608366036,-1.91129671053022,-4.4481706028082,-14.6576897718815,-19.8855040469543,-23.8061801878857,-19.6701071842754,-16.7242888316832,-3.88060588398002,-21.3066745310971,-3.09670014070616,-7.45290183622274,-4.36790432348425,-2.45408733449949,-12.3882495044445,-1.34139384562695,-4.52340986492072,-10.1593121950727,5.58664314701946,-22.3118394876947,-44.7101465692176,-32.3307542725688,8.36185620002288,8.74080754162424,8.66880820835831,-14.203449253092,-3.1047650845876,-16.5538149505546,-1.85075962065093,-5.39440095194004,-6.98392261514982,6.6736393371375,13.9189915967763,3.53875903569315,-13.6706390051586,-17.0379452494608,-20.5870585841294,-26.5326830590948,-27.4282219106717,-15.691244857464,-8.78055799559297,-4.84209132654905,-0.493183807048808,2.16890695111215,-1.13596583314393,-1.55888078860698,-42.4825197277332,-22.0244466256281,-4.96218641116866,-33.1938928105264,-33.9086268631618,-35.5790292749934
,12,5114.8834293563,4177.98721075834,4381.14947774605,-15.5750030390318,2.14214782057206,4.26606535244537,-4.13591317497412,-9.63390986368358,1.36469403139927,-8.71726149372444,-31.7323948412977,11.40665432682,452.351147002599,433.829523678136,667.932404105542,1.08060316362207,-13.2939199018383,8.11332923996997,29.6578456435582,9.13037726775474,0.0784881810213847,-8.32357787654473,-25.6553131040619,-6.51744166507706,17.8303594819763,15.8180084237138,58.8086919387797,7.48415688218665,6.41876446957576,8.00832310754049,-28.0363569093133,-24.3869474236581,-22.0081840879702,-0.223828857915578,1.37428153071414,-8.3455876341859,-40.262751357016,-29.9494096822573,-33.823109454509,-9.95169621675086,-9.43198704515999,-14.6398208598403,1.97722663128297,7.26245241299512,-5.48917301369875,1.73846091867472,-6.98023252451821,-16.7538862077645,-20.9629743944433,-20.523869234491,-22.0999162283197,-9.17382949060266,-9.60825117178683,-11.6871791135709,-8.78558642670396,-1.74827435233783,-12.6533976647734,-3.37478858094983,-3.86298491503203,-10.6322157570548,-12.1420244584187,-11.7845782250024,3.37758811858293,1.78107432959041,-34.3528853381722,-9.70401504565052,12.2742910261404,13.7335766281358,8.46731012637429,-9.0705667976772,-13.3368805431683,-8.88222514510835,-5.75521042729724,-7.93676110868182,-13.9841274798764,10.8517660952602,2.08604219394329,4.10031074089966,-16.5207605964315,-12.7013722561824,-23.8629806082563,-41.2101719023685,-26.1313989335067,-22.454480957851,-1.89511462898281,-5.60319540988166,-7.67984970999896,12.7323494136854,10.4016658686141,-12.8524899424065,-36.6218994999472,-10.5658687822888,-36.491412613057,-38.1486488232258,-28.7693836729268,-34.6900533819098
,13,7551.70016732636,6140.55676891089,6354.36076605951,-5.75748340438986,-1.67789269961577,-15.7817404073157,-13.0604544030266,-21.05769474927,-6.8906784890396,-25.7836161432224,-17.1388864560613,-11.2147859841971,800.553538154089,762.55387687612,1197.51059126649,1.45536389228619,-0.0833023809718725,-3.62795030152301,6.61788852882819,17.3725554833472,-1.47823857468029,-23.2028071033546,-14.6166658620477,-31.0784859983887,59.6476950967526,65.3246282176897,132.293881010003,5.07662342843469,4.92091221723786,1.12297242871136,-30.4983956072265,-33.9488499864256,-19.4793521390711,-1.49359589687538,3.12655237389663,-10.7964899596936,-43.1585520082244,-27.9417752417467,-35.6897327056777,-10.9163609756106,-23.2456930490262,-24.2261222709385,-1.10673513358597,-1.25271527168024,-10.7542463790069,-10.9796542691211,-19.2151337475489,-9.65373240067129,-29.0936764997141,-24.9154856279702,-28.4833191452954,-7.97622003196921,0.111217807287176,-0.470427698695858,1.42962386103682,-13.9241310571942,-2.82417218506998,-1.60475815781592,-9.55000005310012,-0.698597729025096,-12.8963534135155,-24.5076785746323,-7.89694609159415,-0.473067068423916,-14.6891071024547,22.1204166554071,5.06908927518089,7.33225073988433,8.18127218709196,-20.2674854379684,-14.2611415198262,-14.5735424341619,-14.1994275569868,-9.75518093867777,-18.7351660616741,-8.08357462914501,-2.17321317251299,1.40301561527485,-15.3133740945614,-10.8606529508716,-6.34428492108782,-44.8189225264996,-35.8456966416361,-28.693635216101,-12.3933630500596,-7.06821533894072,-10.580148342885,-4.30827919405965,-9.58561441310667,-3.51419725836786,-40.9255697552762,-33.1169145471613,-25.0913417798147,-24.6034416885341,-27.1032292407999,-28.546895616264
,14,10020.3169178153,8641.66137503206,8760.93827431,-11.0084235770155,-15.9833901548845,-1.22139154773322,-13.9341170587813,-27.1301649074449,-12.1713292978766,-31.3182195208883,-45.8314980720079,-8.78929869464082,1364.10223286436,1281.36959620394,2063.3962709303,-16.8800935797517,6.36885039046683,-6.97807115500837,-4.92017549780212,0.962046423588617,-17.211185722248,-30.9733364292151,-23.7668176055868,-30.1987631220618,133.909298459837,146.891564542233,260.975989310957,4.60045359007563,-8.39730617621353,-1.51166390369508,-39.5025790362506,-38.1291681881412,-15.7165521570805,-6.76718139806508,-8.34996651871279,-6.93491367465049,-24.723081233743,-24.8150426842512,-25.3063265835208,-22.6804165573267,-31.1776841889368,-25.3256678093112,-5.90029213553316,-11.338521871151,-13.3527094088113,-21.5881912036111,-13.7707933445708,-24.5251647603563,-29.3616166377324,-34.958705984609,-33.5029397303333,9.43260958934297,20.6592258232558,39.7035074725882,3.36540440653698,-16.9589295362293,-7.22266459180901,8.28330824094792,0.114222618489293,11.7464672431197,-16.4868897811475,-18.7581677028602,-10.8716353454647,44.6689010055579,16.3376804367308,39.5085915234886,-6.16511387962964,-7.33215888322047,-7.22250704114595,-22.9600617416272,-20.4775858384028,-21.4469523678972,-19.7957631922063,-12.7536844442184,-23.7663255954712,-16.3815691759464,-10.9981196008721,-7.72138409864965,-28.0833657305684,-23.2982085623562,-21.9515094240514,-30.9147844039744,-39.033075094887,-25.093933530201,-13.1238274853658,-17.1615566685978,-14.1567289682462,-6.9494923262464,-16.8963733799101,-7.40905127301448,-43.8547644143982,-23.1058169795342,-43.8101036464068,-14.3390755489108,-9.1103997929622,-21.4544145630334
,15,12370.395322932,11081.3151551646,11077.2392398444,-12.1738629553056,-3.58118728006593,7.83986374173764,-8.55563701200299,-31.5729667415417,-19.7659940949461,-26.6496079800745,-38.7816882115112,-8.1726608199333,2245.96975098323,2075.74359924578,3404.19345463298,-19.4311263421678,-11.9045924401871,0.342559318311032,-1.41944876000889,-0.355990041545738,-27.881303010523,-34.5603001563759,-47.1491288173202,-39.9816833622754,271.391403627081,280.134229122886,484.852593070699,-6.99890220863017,7.0361330456526,-10.8469120854243,-39.0537416762181,-51.8985293976675,-40.8182299907785,-12.1235436015804,-5.70710022240746,-11.6016048092843,-3.93789250448754,-7.77259418558697,-5.68261937578609,-26.8136222825942,-37.5037796887245,-26.8800271035907,-11.1746893836862,-1.78013349303274,3.94885561274168,-2.80870977996619,-3.88936298086264,-10.7734874878342,-37.053588965402,-39.581048003859,-26.9860509825239,38.852507686981,55.1293087607428,71.9641057239878,17.6376909941773,-7.26413085794047,2.06687666877588,21.6590826170886,7.43003557816701,30.4203921342232,-23.9893151278002,-30.1179549041999,-19.6694354438687,142.576739278747,73.4641180986528,122.437374773155,-1.5391437870876,-7.50157589433729,9.83608453653869,-33.0020970300839,-31.579790822575,-23.0272457012188,-14.1709540693773,-21.9628435757741,-20.1676599727934,-16.6092250845213,-10.7022197215501,-2.54955679523846,-32.4534287297993,-18.5912805470916,-29.7920418117428,-55.9590028588718,-40.7388249483083,-30.1360261911886,-18.3088113338845,-16.0112467196923,-15.7158500700207,8.28551658507604,0.253002648218171,21.2457031180475,-35.6124116025148,-26.1803061020073,-40.5200995552041,13.5578726885742,14.0535825882635,25.7313229489882
,16,14292.7838113124,13240.6845774288,13120.9132339933,-24.5981778050809,-4.07710010623487,15.9917105258301,-29.0185916256069,-11.4299570729327,-19.993972812953,-27.4483923627777,-33.2847400450446,-15.9058348747403,3658.68952386303,3362.78004166914,5496.82465117941,-14.6932440367127,1.19742871886228,11.0931282243237,-5.35106273247038,-6.76456757345841,-33.9403791939058,-51.3453387605296,-33.3057886185561,-36.56172419018,503.049179497894,500.850197594202,888.893882402791,-10.6592587482864,-7.33857155704573,0.377186321113186,-44.7645054742861,-61.8550060560519,-32.7064500569668,-14.2809210202613,-11.1622592210879,-13.941013421535,36.3170877395933,29.248156201641,32.2653430737273,-33.0867172011076,-34.2266829776527,-35.6977646715623,-7.57403116554633,-8.29636877938356,8.09118134255641,12.4579168255759,11.3147449539774,-5.2562296788692,-41.2371904245583,-42.6634304756708,-19.4855141972166,101.377850089088,142.713828853002,165.85011660441,46.5770396625121,14.5801354000832,29.9249078083267,69.5040460946175,32.2822701268706,68.8033213382823,-27.5250114995633,-31.3853212566146,-24.6886837961129,253.167732857328,181.556415934094,280.497389174614,6.83782114772839,13.998389263943,33.9529631881105,-33.5374650407248,-25.7849717758936,-30.5974078359422,-23.7011973741801,-23.9611716447407,-23.3523101951041,-10.784829901364,-2.24801298877901,-7.35211080059344,-26.6324145505478,-28.9772086261901,-29.6623179612661,-49.2958128769988,-31.1800542928813,-10.4290292262522,-18.5472629061142,-26.3170506189508,-21.3118442815794,1.07794151997768,5.05699266818556,18.3739449892055,-41.8474009000092,-39.2793384468805,-47.3484192472952,89.1795909938191,75.0655166060842,106.103199131692
,17,15739.9276238626,14954.0893897567,14747.0248215148,15.567732723257,35.0139480093567,42.0529228619598,2.68003981282527,-4.2130667539077,-26.0911786376491,-36.2511654035188,-62.0745801087614,-27.0477305400254,5623.82676177191,5198.13223872165,8221.21158176273,-7.29789446518953,22.8785064376516,50.6355584701414,-18.8217827364388,-2.57746914476047,-28.2110997910822,-54.090599598956,-38.1777366069946,-37.4264385269962,852.074888690989,846.934152035105,1543.74821160629,-1.38223960982396,8.17568475256485,18.8633335146769,-60.1202319428758,-60.673049276973,-38.8194774446802,-16.0196708654003,-9.21867970634321,2.65672856096171,118.644249510161,96.2608749740066,100.997140426325,-23.4311851640778,-32.3333671102573,-34.0663459105544,36.8266493744159,-7.88815249142408,31.3715277806123,33.4554294204654,45.8760918257876,12.3173780336419,-31.6400062101047,-36.7724688338094,-3.03068930702375,215.438533351937,290.063011509072,320.005200921438,85.9246371496192,33.1105093030346,75.4516054598625,154.325302323101,97.7093282450087,158.301963919938,-24.2734901378062,-34.0858613803593,-27.5542773582201,502.013927214797,407.49390620275,585.042229451117,47.66875559459,65.6194059110294,67.8707011042552,-36.5991217251885,-29.7261415435169,-35.6717188847833,-18.5495746376064,-22.9698265594625,-33.8374759230956,-1.02812817206541,-5.85444497027675,6.51747355399675,-34.2279715216591,-27.5734608796429,-39.07191748078,-31.1068322413012,-7.13284912924428,-1.0731597139802,-23.3029338568513,-30.3944708708186,-32.1323461899865,43.0631968067155,20.9133462689733,52.8443402808134,-28.6817645808733,-48.6225852505504,-52.6167416614171,200.812234181831,177.091523459572,275.449031784625
,18,16723.718457504,16135.8399740829,15914.4458606506,47.457866578312,115.716745262192,120.26772034231,24.0537878405939,66.3364200623655,-24.1996846735283,-45.9131033774338,-45.4319995188962,-23.8612430651228,8127.24204092714,7666.75988393115,10821.4443331897,-13.8345426633914,67.105203119052,94.856595447307,12.1532492201131,44.9496687960982,18.8456040911733,-51.9241841436324,-35.4255296178962,-42.999254283106,1418.20621588898,1392.20571113237,2632.90736286196,18.0866885810374,28.2235347916412,31.9301873981985,-39.8112683590134,-63.7737698184392,-37.64914844329,-7.64800341068894,14.4812583438488,6.36830350483524,268.581988949534,220.023461405126,233.686448589011,-33.408522394624,-46.2545608116579,-38.8797464683576,74.9241893368271,14.5700831054628,66.0857964257293,103.717907555469,101.562014647355,65.7081918037266,-16.6693853035185,-18.5115361675007,36.1543373766917,426.696566423212,551.014404842774,619.481238646573,172.33942089893,88.6562800224692,178.499290233525,316.729267445141,206.494560978144,313.221875504323,-30.6172791546387,-29.9577404957545,-33.9498926456045,930.233610917678,770.362247185669,1079.63172648117,112.949382509112,145.183179024121,148.250287593801,-48.4326871347157,-35.963283514925,-25.8588469866554,-25.570093672246,-24.9147193131794,-32.2545493847047,32.9400581993705,15.7273824773092,64.9779781624857,-30.8962774892771,-31.7162049717545,-27.8229707832706,-0.761484769414892,29.8210426178393,22.2527953943372,-25.4281157975784,-31.3281629609082,-31.25210117607,68.5254420998044,72.6662958370289,145.536826207734,-28.9292836539298,-47.0416304919509,-56.2668210637403,393.930803304953,364.662994638671,528.219379416138
,19,17415.4319979559,16993.0025182033,16754.7374084235,94.6856013363158,230.616511819118,239.616473484308,37.0386099034531,138.548413978337,-27.6107596045567,-28.3916346045298,-41.6879242469313,-37.5565362335874,10594.1662198318,10218.3018922679,13186.918960279,7.62830995793593,132.29961659443,201.259145273834,14.3138322317791,111.858468726592,74.4479052321585,-46.8785985144823,-43.3771699890149,-40.5224896016753,2200.4649656262,2149.22705254149,4156.41381556039,21.1303942172053,68.6051630778802,84.2329352512716,-45.4797172045219,-49.4102816149898,-22.2693497615619,6.86316413880468,29.8515108836637,43.3837896304394,483.352897358267,385.953970026711,417.919856104861,-29.0819878635048,-40.3388015223445,-47.6468433491718,152.63974310774,32.403018069509,123.3511979462,175.476859785441,208.829728628747,144.584837220269,0.372041032621382,2.55622310897252,90.7754300772995,753.332242072267,919.947707686353,1031.02245987216,320.695658123601,170.852503682503,342.820707634295,576.657453853223,370.193659131601,584.823997833683,-32.703813666737,-29.094291355661,-44.1643858140551,1567.35052736749,1302.5806994893,1771.48321876314,216.71948881593,256.547691440079,273.079732763776,-51.3746365606066,-25.2833254739389,-37.7365020862162,-33.0564773742417,-36.1140004667513,-41.6208406614287,89.9449240758131,40.1571508616616,105.285570589016,-17.2225098527197,-18.4198507243764,-28.8034499341247,32.7553724303216,107.799501367987,67.297735392287,-33.408023517537,-33.3148234219461,-33.6528273028734,167.941294608996,156.730942879803,272.327715811887,-35.8532249876025,-61.890158561815,-61.4798568487677,695.584680901253,654.502832792728,972.5268929717
,20,17866.7035035054,17571.7824905523,17328.5560746837,227.177150022455,508.177539830875,515.903237271488,156.669747255139,335.341683478469,-31.0033108563712,-13.3367412191346,-54.8187241863998,-21.3995789590062,12748.6184959348,12564.0610469176,14961.7682337988,50.7203618913773,296.163854772189,434.169692675092,83.2126741850389,255.485236639397,211.218758942905,-47.8194493740339,-33.8395207957983,-6.11541791656964,3598.34541918288,3505.19388342617,6704.40616037729,90.2868621436319,163.09655905691,209.508431011211,-37.999713196079,-32.8844851257945,-1.56348769252872,54.2444920574681,82.8380645248417,103.255765224693,908.466274398035,727.950980093447,789.078146612235,-21.0793127289453,-30.2905210903646,-29.3360508615006,347.403510253127,98.5672636700347,256.529552774735,383.726720554259,434.300054973149,325.249841020626,48.8636811702563,48.3676509530169,204.362055662721,1376.91930260285,1618.30959983879,1802.10758152398,615.086751661342,346.404667801604,639.367802183264,1103.33059480692,728.964325432479,1128.71418464909,-33.3595669972965,-18.268207257549,-44.3355943111155,2590.0882128206,2198.3469675947,2955.91063856057,457.844869651479,539.827172233228,535.040766935404,-30.8231650605012,-24.4929517139044,-29.0293720093368,-29.1414573604025,-32.6301644753084,-42.7612856876458,208.160363203087,140.856453453174,252.314787624606,-10.6882615557679,-6.25261862426032,-4.84393650249604,148.241844795066,256.11532006882,174.971249877604,-28.9462477680718,-31.1445726512802,-29.9630255543279,333.649255100949,321.415385686065,566.048766049136,-31.0648717661988,-65.2570850439242,-70.4831249502859,1255.06544842128,1179.96195235652,1744.91065030633
,21,18218.9337429873,18013.5306888645,17752.8623213345,416.300035098751,868.013250207678,882.786810046526,292.600629753208,611.229164416716,-29.351155069061,0.882249246926222,-15.487498634966,-43.9218076923607,14509.3792912416,14569.461026045,16267.7577358189,129.592252322851,512.475255637049,765.926783866773,195.59770121793,450.186244482187,405.17926966027,-21.6896323589754,-32.0307487019636,0.643043975154797,5299.17140583764,5155.9394810805,9436.24166567589,184.671613444456,312.906648399181,369.96336324587,-10.4545077706716,2.44429743532055,30.1166258351404,107.836916568001,167.000375171265,198.221662483123,1481.63880315274,1171.4428294356,1308.53862412297,4.41234639352479,-25.9496002841024,-25.7832345511888,605.401373107748,195.828956486645,465.459343838286,667.42839924659,750.99301049689,573.335209677197,120.057993617739,128.226085323673,366.89178061175,2120.73730949156,2457.46850695822,2733.34611086737,999.81560695085,608.224652759196,1074.88985012074,1861.00284183251,1248.53141696343,1905.96375820702,-28.654788454066,5.96293654047622,-42.2287062016485,3747.73756847479,3274.66364337691,4171.90962164303,784.012824331085,893.385735806383,929.956922524272,-26.3039772052043,-23.7522486154085,-23.7096793936735,-24.0716759767793,-30.2353582557171,-36.4139927871411,404.857405111012,253.376191097635,457.518988890743,30.620332691904,27.3584887922661,29.3112553041337,280.918930218217,464.645756440948,327.119871394005,-34.2531135270447,-35.7758068386211,-30.7947939583237,588.241851044972,572.865315560261,940.698399526915,-32.3218270878933,-57.8233427040595,-69.6094187819999,2023.20077123497,1896.75232962614,2805.83788006514
,22,18489.0889788275,18327.1146663365,18085.8051092395,814.012511289302,1556.37893523291,1582.77124276561,565.643267396652,1116.35068376897,-18.561207451814,39.7186723336545,9.15544164001585,-14.9677250671321,15774.2016234513,16042.8611593874,17150.9591207733,304.127139278962,993.961985240676,1400.64834272943,387.179710666747,859.850421591227,756.183092421261,10.8291654849145,1.08592601647615,38.2920865534179,7812.9481567911,7747.65625829888,12087.6130640336,377.155124990273,609.857254569704,725.982755231076,46.2876571331744,55.5832093654881,107.747351874646,225.755100189689,331.298018511649,364.801613601819,2485.36269725058,1977.08863413281,2230.07018699947,27.1018172448476,-4.2244919625391,7.13462232147322,1070.04338362372,376.543000120078,826.824175193526,1192.11297045729,1336.15719473599,1065.23586504938,260.983417646322,263.704684083788,661.546066231444,3271.89899582012,3625.11627593806,4015.03279932845,1698.88616798371,1077.41979828613,1864.24893291064,3199.54012202159,2186.40257570467,3263.71061269512,-16.8372700271384,43.0097716328582,-14.817963968927,5191.90172677642,4659.9598442487,5691.74287630466,1366.88374548906,1566.60046804761,1636.2064229044,5.95435142944098,4.21679769415005,8.49905204334573,-27.7499828663103,-27.3915812512641,-30.6267145367174,744.138126673428,497.298325463156,862.557063605376,103.622414701154,86.9800954420307,109.609421337725,565.449564580505,852.479719194287,613.000123482499,-24.8026108006725,-29.1234260293422,-31.9518666682061,1040.3465404697,1019.14360446169,1689.90653652124,-16.5507506066042,-65.1719683722968,-73.8815780702225,3260.66085708549,3073.50797261809,4430.59776675123
,23,18686.1483094152,18555.2623506607,18320.957452988,1552.5417342149,2791.3479467958,2803.6059223648,1069.71194814695,1985.64336302793,1.34765516305652,101.524737783,73.9696961990503,41.0648645597594,16658.3832831175,17106.252135066,17761.9299706305,645.76420249673,1888.444249053,2544.68308576195,724.677735250654,1531.25887503586,1410.94222851211,65.9456202228976,52.2531534155933,120.696458997847,10240.0591249486,10331.1471865817,14321.7094239449,749.36356213488,1176.3332469105,1366.31215562251,186.993377331377,207.566583968668,263.185633068932,451.053193327241,646.836043275646,715.340624572586,4184.58392743708,3334.74213403859,3807.83094468667,105.92176179228,56.6808337895054,56.3723609543904,1938.31898247442,728.241863686078,1521.36079450403,2132.98246919894,2417.89192693668,1955.54115616164,511.89504015512,537.254281617787,1219.14292871215,4735.6653034581,4944.28076202337,5525.70394831477,3006.04175962549,1900.95022556728,3166.96257209323,5331.95649010619,3781.50927957908,5402.80937352894,15.3073367417592,118.608205122463,15.055799323738,6480.25753510663,5983.48134382569,6955.89795028561,2390.02610249096,2719.98227345371,2842.58126614826,62.809976402531,49.9613255423092,55.4708902790071,-10.0245536516741,-10.8335856262938,-13.6177432229351,1390.28833891911,947.66991537128,1570.19612468099,248.466979293155,233.817538020114,257.584669240535,1064.41529606999,1542.51580143273,1108.89381911007,-14.4067567840339,-11.0429867227331,-16.1174421592923,1864.69043031626,1797.0469678947,2889.96147213384,-16.2909360711383,-60.0163887945837,-63.0974083571273,5023.77854501781,4816.57089573464,6604.08339613166
,24,18821.7443369475,18882.9739452322,18498.9865105483,2476.85995413578,4076.02179584475,4145.17753895347,1740.52780628047,2931.85664228232,37.9673307442063,192.975757992248,139.396507310286,78.2924134915447,17274.3938523091,17835.0446081742,18182.8015047078,1123.99126359475,3000.8030181048,3868.05005408795,1177.28813576744,2242.76842375536,2150.24450553726,158.624570770919,144.399814728522,207.196191999747,12505.1869108517,12833.7439185745,15951.30227659,1255.66136554964,1903.10593943487,2213.19857856866,390.477958202777,445.068869401237,484.393184004566,767.449637329786,1066.49739120052,1158.77647903707,6204.01744774183,5000.84402777172,5708.28609061039,199.089308094959,147.282145946641,133.6975327329,2999.57059582877,1214.18941075675,2391.48770536837,3295.54954988892,3709.55068917038,3074.55423900388,854.830797554139,883.513542521583,1925.90504601989,5929.39221276197,5898.57443320731,6591.90108599425,4202.58086073922,2906.10781606114,4555.35146881058,7434.6046237548,5524.35404626027,7515.23310488678,48.1954013786144,226.38077025636,49.8426923445841,7541.42871202177,7107.19617031958,7987.20325684609,3569.12338905396,4019.93044934179,4237.5403904808,154.643528689439,107.262740551332,115.735676992886,6.51887363311744,5.342284255089,4.90056826379077,2144.15511555845,1533.98360399094,2449.30547339585,493.876952506364,453.457835028228,504.48528129553,1710.02762172302,2442.75017631014,1818.07364085449,5.6351782052825,7.88660089954374,3.04322154839247,2926.87804231643,2795.67739002993,4295.13474830875,-5.18455177892065,-66.1938498693344,-69.9466979556273,6929.14281901495,6664.08655241844,8636.44907766605
,25,18930.2614694172,19179.5424878397,18614.0501780105,3991.38046313484,5732.40987814934,5927.2852458942,2790.40356207738,4227.1129041536,114.666014262201,360.77475783298,283.602078881437,179.481856637223,17687.3142813184,18347.7875254483,18462.1976877919,2045.03366010496,4775.19389102761,5736.01890973327,1952.17135733504,3328.06035572867,3320.84644910125,337.862363559809,300.719674268361,371.219922133496,14343.8000349197,14957.3414110828,17049.2496485293,2189.16566472639,3160.44601832808,3611.07504410994,800.69706672772,880.12554847747,930.653293658284,1330.21235101294,1810.82322709574,1964.68035944049,9097.42434495798,7607.5494556026,8495.74219221421,394.328174552929,325.317084849657,315.521077149004,4588.65280450348,2039.34776278366,3775.09232118718,5065.22265139347,5608.47121012544,4777.19349641334,1452.68393342842,1535.21509294409,3209.65917495644,7092.88212200942,6794.82369446224,7588.77696921711,5688.00522760344,4376.73383899497,6265.00305159152,9625.07170444022,7818.17962585757,9560.92760984787,122.27041356571,415.896014033754,140.611234265439,8319.17708512093,7996.24665499621,8751.70312005551,5258.90163606451,5837.34905444876,6135.35667543349,335.845392338751,228.702029478272,260.056415566577,44.4421455247957,47.8428497263712,56.6192861919471,3318.11862163842,2451.29623832722,3727.60261364606,961.685343306139,866.311471020676,983.344803082432,2733.98056170427,3811.14568248274,2919.58815293488,44.1198073345022,49.5841782677826,52.8244547604436,4476.09226646925,4173.40731200889,6068.6184333438,-0.259908893962347,-57.9744281726962,-78.8721059288819,8851.48501880947,8690.1512917987,10550.0310415321
,26,19032.480655287,19460.6690394568,18753.9331517228,6225.3840079881,7370.30505196056,7671.3617398666,4575.48274330401,5740.90360665728,274.219400880468,665.95632965525,567.077880385095,346.178779157708,18021.3978999555,18732.9938153437,18682.9142517011,3660.97907098526,7282.12237745565,7758.87024859535,3268.45971074302,4820.9066229749,4949.02583996563,665.504082763062,590.204833434778,746.429261256597,15781.0559947806,16674.8941519174,17852.2684045446,3842.5711642717,5172.80789181765,5812.16120611154,1617.59196624986,1779.8072474237,1831.65798297321,2395.40156136247,3171.0015930651,3425.82189787947,11907.3541160385,10273.039306427,11196.0804366047,817.698633358341,699.260646147195,666.126706669616,6860.41609404855,3520.07091330763,5922.2579027785,7332.0989024516,7916.03820817727,7167.27151242646,2599.02189851433,2782.13632547373,5436.11682424226,8103.75008908195,7518.41896838352,8413.17661280035,7094.69681455085,6361.18457230015,7880.29917667499,11364.0706690181,9840.06757374548,11197.7564796759,269.214472971603,796.34121490597,307.473225916279,8919.61772211523,8685.51786917714,9319.4254217971,7199.33091515776,7843.78971701812,8271.34165255908,694.366048647187,470.399791186543,528.912681726432,122.616001653316,128.328359732277,166.630969134713,4982.24932299292,3849.21752317504,5514.26550529561,1849.77484779119,1685.70746165037,1897.85417988407,4337.30316004927,5778.36577853392,4697.30249560055,129.927989183957,135.38591498611,137.968910395331,6459.76345362518,5926.91973869776,7770.7614857154,11.7689465739095,-66.1694466691315,-52.8692739222643,10619.1030189668,10534.660546921,12170.8451298901
,27,19091.6035331413,19539.9279028816,18839.5212115967,7903.57763410207,8540.442219183,8927.21343071235,6311.06232826947,6566.00215453677,533.360505695428,1136.56835869254,948.994912809621,613.487139132827,18247.3468974392,19007.4742139235,18837.4734437262,5626.56242613045,9051.28298651338,9253.53781118601,4765.80397191745,5937.91714299056,6270.36822337372,1337.96743629578,1029.49122831781,1255.968319525,16789.1623915504,17891.3464324372,18392.5118048692,5889.04075668196,7266.36508383735,7818.83996940587,2813.86739162304,3112.03076524703,3156.99114311502,3911.93205198399,4975.2123810225,5297.78151722802,14333.3714581211,12737.9087999941,13545.0796030303,1496.79820488399,1283.30070105007,1272.98864783481,8597.89193327993,5440.5787831238,7850.07324120018,9146.16687303961,9686.27762383658,8849.60833577155,4222.63200941327,4588.27905428086,8235.07252403606,8893.93319939331,8056.0376994655,9009.71587926915,8145.83252698526,7826.56663641517,9047.78942421627,12449.9026065138,11320.3411926917,12196.0559980513,495.631215252859,1374.40296333823,569.147373824845,9333.48919853439,9172.2513911275,9707.07241627436,8794.74256700665,9458.0689654395,9966.18264082321,1259.55921886713,873.892837307182,976.171931258192,249.338733763809,246.620666845088,326.134037933751,6316.66130231712,5207.56438744871,6860.99277270262,3273.74790982449,3023.92099950565,3373.80978835729,6126.89625797498,7497.82651911411,6681.85608058143,266.690386606601,264.539515239217,277.927138324512,7834.06918571814,7149.76970505564,8997.02303718894,26.4225592619223,-60.655927485388,-60.4969758466268,12012.596864942,12020.8264906258,13368.144290275
,28,19115.7643431922,19578.0820869848,18896.5141506691,9268.80044575435,9266.80326582412,9713.38338399829,7594.98352601981,7241.49241414214,962.519248797674,1786.10186938288,1507.80062214079,1000.66561258736,18398.5549006203,19173.4352141894,18938.3324063461,7533.84789096713,10463.6475605617,10203.5519891349,6159.9546256483,6917.68202348768,7423.58612777903,2010.70500660591,1617.14890131644,1938.69228997972,17450.5432937705,18709.5963813637,18741.5319967532,7877.78207567033,8821.24252918489,9553.22843138163,4390.55792040432,4806.89584162251,4874.32337015051,5725.53947411565,6915.08662880565,7324.08407234071,16122.5876035401,14681.495155687,15266.6497104473,2498.29886499074,2180.95757592483,2140.94493391336,10023.8380150258,7520.16613652125,9494.00763720843,10441.7443006548,10868.6442834852,10137.8524860363,6288.94706363935,6902.66281283501,11041.1602964093,9454.37579000786,8418.49596089179,9417.27094799744,8856.16495276231,9050.38934832752,9800.48885386358,13037.5228593507,12215.5389766006,12718.5251254346,829.787343458725,2207.29612031774,937.224904910944,9605.79373517467,9492.17078790428,9961.94493191024,10021.6573671226,10633.4866065368,11198.5912175502,2109.75185640299,1482.05971635669,1651.63880443288,419.362020331557,423.415617454587,548.628958158984,7468.14774001182,6199.04340264741,8037.18785593813,5292.51883837676,4918.71570186395,5401.2398725664,7608.15181882101,8976.81514407728,8374.78430321031,450.943038051881,460.033273307684,470.80201062762,8885.40161408324,8113.53395473095,9745.35422357641,40.2688180208679,-45.5998800868874,-49.2415696747503,13024.4124200968,13103.4014463026,14189.7464153067
,29,19143.4838822302,19616.6492523302,18926.7630720736,10181.1082960022,9742.52808301569,10225.1590737337,8707.13799381217,7712.90960528784,1772.38384408797,2794.52757408943,2365.13395296416,1656.03435139966,18500.1553432927,19300.3656657372,19006.1017434387,9285.64542936093,11392.7424718429,10810.8230942356,7467.12949024357,7679.7441436904,8338.37550403552,3142.87891957562,2637.97988856707,3083.25497912493,17929.6825204434,19274.5368647302,18976.3812452142,9691.38197632269,10172.608563876,10872.5616180416,6509.32655431908,7067.70748697454,7164.57458326029,8135.26737819915,9022.73723907682,9251.45959545331,17373.267278924,16094.9100653401,16475.6118715215,4173.22281419384,3726.01220221537,3665.7836576067,11042.7959989835,9499.87489503617,10747.1118391874,11286.1568556695,11632.5105289128,10985.4039173336,9127.33738620508,10020.8307188405,13621.4194775462,9877.51055593786,8684.71976724191,9712.58571807659,9394.32196372107,9954.60084214444,10338.3371276832,13425.1921499618,12776.3816446619,13062.8018309026,1454.88854992487,3697.58331304584,1645.62674210813,9802.65958122994,9719.45624211927,10141.1875549549,10896.5048765743,11472.5738760247,12071.3693095956,3591.10517748219,2576.60667003003,2842.05714164039,751.551322604598,759.475692418657,968.334206572483,8375.57212357582,7111.69317661457,8965.43865842584,8087.62241903192,7612.21525100867,8202.33996809089,8940.04964586886,10117.0320151722,9863.24864629608,805.525772791613,814.562284014422,830.268015679829,9546.30246213541,8738.74986125151,10205.8632673365,72.4070677960372,-12.3195294533161,-18.0719581671347,13745.9243499514,13867.7079535269,14752.3217683294
,30,19181.4088416735,19673.8976659,18976.0900453198,10828.9927502623,10146.1230260759,10645.115355186,9592.15059965897,8138.98432378328,3199.17263407896,4206.40865383357,3633.49418716907,2663.50610052255,18583.0161819105,19403.5256053696,19048.3583969392,10726.0290467852,12035.6282145312,11296.3210874534,8592.62552892488,8317.13261772696,9064.10976985851,4746.78380201928,4043.6327646997,4656.31173733847,18299.1202254563,19722.4038305831,19181.0542574174,11160.1726913278,11197.6553934012,11864.1029224249,8377.79610159657,9029.80530390454,9131.89990196627,10312.9238018333,10782.8695959304,10897.1842336299,18302.737251261,17131.9295619602,17356.793578451,6373.1567640124,5864.24012418291,5804.45508342583,11853.407606649,11209.7783459755,11706.6257693121,11961.0980674321,12248.5362340648,11620.3217494098,11783.7970824978,12920.7186035328,15744.7008003358,10210.9995001639,8898.14901083616,9954.62733866779,9870.96949530066,10678.1834134481,10823.2546362989,13800.4898162929,13256.8973318394,13397.8707234819,2510.14016876369,5914.78575034281,2807.52671047082,9951.48150650142,9907.36553988818,10292.9237671017,11573.4611265807,12114.3732932838,12744.7113958084,5829.89038510086,4323.66507985651,4663.29587060245,1313.47066463326,1307.58513675048,1683.01627049341,9139.40210894929,7881.05814460287,9756.18488285271,10691.2014663181,10233.1351390043,10779.1207845369,10042.0233002043,10997.4050203331,11040.5405014537,1397.77788683007,1422.10200026375,1436.79349112482,10002.5805866528,9185.49357098694,10582.2851028952,102.16576502452,28.8719540058537,42.4350249148738,14295.8492980644,14437.4443735119,15168.360500252
,31,19208.1310166915,19710.4019096696,19020.7521386482,11181.4423996269,10390.5321420112,10895.6970999785,10157.1329834645,8418.92307742181,5495.33316503336,5924.80815027896,5174.57540542114,4104.49005894158,18637.7108043725,19483.9872236792,19083.2558651046,11681.6677593778,12413.5509320631,11609.6382474756,9373.1333153082,8736.83180078847,9558.12918387878,6727.33892270062,5927.80392176764,6536.43236140291,18562.7093567479,20041.07327746,19327.729487579,12107.3618444172,11846.659964566,12494.8106576371,9844.39510045134,10579.1078162985,10660.217094986,12004.4041905741,12018.4011425746,12040.3108510227,18933.8941729352,17840.0283118789,17943.3481124863,8792.82756968844,8186.15590051215,8144.87045568054,12416.0438282259,12403.5048266778,12377.4862005013,12445.4527442235,12692.1513544148,12083.9075192174,14024.6519586526,15309.302444568,17226.5787096362,10459.2227015877,9036.75293048898,10115.7552910772,10200.2651674941,11166.6602030774,11161.4746716817,14052.1346999525,13587.3363134151,13627.1380605859,4180.71501285325,8807.44492259457,4652.48062911707,10043.5476558932,10032.3503154012,10376.5553279257,12004.7288585962,12542.9893981284,13183.3112890357,8673.41468456026,6884.67696647583,7151.7698065708,2275.83519540275,2237.86354844063,2853.23343701576,9688.98909494896,8440.01703708664,10332.1178363365,12730.6329618906,12301.9543723767,12770.6799062897,10855.9829991177,11637.5202244056,11864.763066549,2397.79799095379,2413.8771383472,2459.29413494057,10285.6488933252,9446.06507813939,10817.9227843183,167.278821909729,112.485215586648,128.526244630606,14669.261733322,14829.4885404251,15447.2025949386
,32,19215.3754962471,19718.6591299849,19200.5902339392,11367.9678494964,10536.5022132942,11038.5126958848,10495.0352755227,8585.28572071752,8423.42858349637,7400.40851236086,6598.44193061804,5754.56632911462,18675.4627683219,19531.3634025598,19094.9801431878,12252.0777175037,12617.182922044,11775.9552787174,9853.27868173779,8985.37921346904,9835.23503060609,8556.90834718846,7689.10377793505,8145.79377746597,18749.0887016206,20273.7901745383,19436.464178714,12636.269718588,12206.8680638589,12854.7912330373,10779.2066410446,11578.9214201079,11612.538385661,13103.7374284726,12787.1537522535,12755.5923505488,19361.7561163867,18322.4750334663,18351.8407128887,10693.8022034072,10134.6560686245,10109.9833938014,12778.1978769523,13140.915852711,12811.2922205467,12765.2644090869,12967.4752677491,12379.1897384011,15665.4501887986,17018.0577557479,18210.659572626,10612.2132679366,9127.2893218229,10218.8015656029,10399.609233932,11459.6225430238,11365.8294105521,14211.028670963,13811.8212497479,13786.0399996262,6472.64815534293,11527.1560127084,7144.55211294706,10084.6404138826,10096.3774277915,10410.1146745273,12271.1589444317,12785.7048806645,13434.4341415762,11255.3286538555,9664.45802669597,9563.62187418617,3721.86993152104,3641.40542786431,4557.13360601538,10042.4992207491,8807.06108833756,10711.5928860887,13965.8722732021,13582.5273195156,13962.5471691638,11431.2012318083,12070.2088851522,12429.3284307963,3924.10122814553,3921.01521611713,3978.56614605623,10393.4296877919,9570.43141334945,10935.9291359199,272.944078439919,264.582295017397,303.57694223404,14919.7716018646,15085.1162631569,15633.0042565793
,33,19233.7538003511,19725.559608825,19373.4762775962,11456.4540323801,10606.8778904608,11121.7440149028,10641.8058568006,8671.85111506084,11216.9006714003,8688.18940925954,7890.0116684272,7316.31817101124,18705.71090993,19558.735597898,19107.718698859,12566.7558322374,12714.4502451809,11856.3421635652,10094.0547072541,9129.53064716549,9982.82045428611,10159.30219273,9275.6469188405,9559.59314382487,18870.6420963003,20436.4400469971,19513.0942548184,12892.9944804084,12388.266694321,13028.1146925198,11329.268038409,12175.7977265997,12159.2620754717,13741.3773941798,13247.2927319414,13200.9816820559,19665.0906317812,18666.3965223064,18631.4766626611,11927.5247151876,11548.7451271297,11546.4123659399,12998.7531645378,13545.307595741,13085.1134773629,12935.8132745801,13133.0132571716,12575.9547023037,16806.7302306817,18156.3895350599,18853.7536895598,10702.009164734,9175.53832694735,10269.9318268985,10514.1181523179,11617.3840859189,11488.4536383273,14295.8382266317,13951.0560771859,13884.0578457989,9215.49762139132,13854.4083780273,10078.3378465042,10116.6558842595,10121.7252258381,10413.0524502902,12411.8519468226,12913.0235886229,13580.396748286,13337.5395081209,12144.9931122584,11620.8305976283,5812.50941785713,5667.37160218958,6924.2913608182,10265.5985393478,9044.03165451676,10951.5846349191,14556.6275913475,14202.8032692443,14534.2078269103,11805.3364494272,12372.6765530253,12831.3078819453,6094.33897526193,6056.77091965604,6143.52733226154,10424.121302524,9606.31712689722,10970.8532610037,444.820601928319,544.11968003207,600.891729554975,15071.8956967844,15247.1246006763,15753.4063974781
,34,19238.8469765443,19733.4511805816,19539.401716112,11509.1656926928,10663.9220587991,11192.3247505586,10726.4967239265,8727.11548519653,13472.3817592045,9709.65499512004,8943.89006446682,8716.0051066656,18722.6032061045,19573.8508456401,19100.9998972186,12730.0778535535,12766.6367979392,11897.0038844686,10210.8041128682,9214.20117000381,10064.5910464147,11373.5365348949,10530.9608440968,10613.9934438035,18974.2563158986,20563.4796612601,19559.2017311039,13000.2700053215,12477.8696245532,13120.1036165084,11666.2243560217,12537.6050313096,12481.4473332437,14120.5897822744,13531.3258549055,13485.1670504253,19882.549828996,18917.2621951666,18846.7534081995,12681.3215088574,12402.7526583688,12429.8370823919,13132.2280983789,13768.0323999582,13270.4887587856,13051.8307760246,13241.049691606,12697.2117473878,17569.8996998563,18928.9147182068,19303.5068699689,10751.793011479,9201.96946948273,10312.4099777065,10597.1131657429,11701.2174860244,11566.7654001474,14375.2606922015,14038.0255059708,13955.792968303,11733.6936713237,15596.4321949629,12787.0346485808,10124.2541562963,10104.977356192,10386.8469661239,12489.7118945458,12980.0144100701,13665.9241123587,14743.0754714053,14028.4316575007,13109.3279393727,8513.15868240759,8453.45001030255,9799.62181791372,10409.4164539501,9179.14646967075,11104.1186416519,14849.6142330122,14494.9167051281,14797.0113375842,12037.2712736056,12570.8925935773,13096.3278788405,8921.04001783125,8872.16666151186,8962.84361550905,10418.4439336293,9596.7238897247,10985.2135689029,768.212300330806,1047.40944063201,1127.54514943321,15159.9939316005,15337.749716093,15832.1045056636
,35,19276.3860671785,19758.652651856,19558.5998420019,11562.194739304,10717.8663288729,11241.0965212124,10789.7705205782,8784.33151999922,14940.2422531463,10490.6745404952,9759.90956826952,9852.45587589179,18738.705214412,19598.211422954,19108.6978586195,12825.3239098522,12797.2080673482,11930.2030159031,10274.1810774355,9263.58682330316,10119.284192242,12250.9612784688,11447.4714506181,11377.9894453453,19062.9972018713,20672.7810506403,19604.432485124,13053.3314318689,12530.0089708945,13166.0292640827,11904.9468380416,12803.0368360693,12723.467480378,14367.9245487676,13727.9772931516,13695.1327048043,20072.8121787166,19113.4039633903,19001.1954377383,13106.2028579598,12904.9512225314,12955.9823238925,13236.3854694938,13886.2699096518,13392.1893083886,13134.6481193334,13340.7803520528,12796.4467489419,18111.4519128225,19482.9912922988,19637.3272680637,10781.4653238148,9209.03861149412,10326.7656363403,10672.1935798002,11772.2221681552,11650.754222244,14437.0180359244,14104.3255545383,14007.9539377924,13838.0835817455,16813.8635029865,15065.9207897072,10129.1629081902,10083.6111082627,10360.0900857386,12539.1350643276,13028.4946725646,13722.4891788918,15585.3419494634,15245.2653348615,14058.7559676508,11070.0439330178,11190.3669399381,12440.062949497,10528.8740945307,9270.81935509243,11230.0609056259,15037.7308810155,14684.9066533161,14978.6337211996,12198.6207945745,12723.9118174459,13270.1043497237,11619.7858000352,11570.0721953756,11650.1391254738,10430.6771330004,9583.59616948717,10999.4830175303,1336.04996081282,1868.14951175384,2029.70185318035,15213.2875351356,15406.2943854817,15882.0276838364
,36,19277.0854325802,19757.3788788168,19563.7949114061,11569.4039457901,10753.9375782255,11263.7456941125,10814.6130580064,8823.3857740992,15621.4572960246,11023.5109656565,10295.3692220997,10630.1874220441,18740.0156366947,19603.4697234049,19103.1880702946,12849.3611975704,12816.4475571664,11941.9088977378,10280.1976455815,9272.88148323936,10139.8576954236,12789.7634389383,12024.4708570073,11856.4179581722,19127.2826946858,20751.5896994856,19626.9245718677,13054.3908089261,12532.8247971704,13184.0252077552,12037.0362919848,12947.0739336328,12854.280319876,14522.9846511648,13852.853234809,13828.3092264622,20186.1762555275,19255.4769624712,19115.5858690258,13298.3556004243,13145.1848621041,13207.7954733062,13287.5477862308,13929.3187770193,13476.5309528731,13188.6477250051,13402.4708662599,12858.1976195583,18472.7191590262,19858.455474498,19879.0890648502,10789.3279562798,9201.28951919341,10326.743430937,10705.481512266,11794.3162869967,11701.3144424229,14476.0400416059,14134.1264294719,14029.4524643162,15327.3202259095,17609.5753163352,16696.1952255989,10091.0493286257,10046.6032916183,10329.920794472,12558.2936976381,13053.2929142629,13742.9038993314,16008.1330021403,15870.6224227654,14572.5418082135,13207.7499588382,13593.2657352683,14589.3332994631,10598.5093257713,9308.12871228311,11308.8344817886,15157.3780860303,14801.1756796927,15087.2926070203,12292.8186776643,12809.4378794264,13354.779109041,13891.418591399,13868.3918318597,13965.6855735174,10421.6741419027,9565.65113574698,11004.619796056,2274.27777167312,3224.9661508091,3494.90427015372,15232.6101509057,15428.8377534752,15909.4278308657
,37,19287.8869386382,19765.7564919981,19566.7457835647,11574.1129546964,10765.6315292039,11278.0588794256,10814.6748715493,8847.37773285785,15810.6439288839,11336.0784763148,10632.8902912115,11117.2157446388,18747.9879106502,19598.7494579302,19093.0014098063,12864.5880499116,12805.9088125883,11935.6912786302,10272.5243137989,9256.12728356784,10128.5321925797,13129.8373753492,12378.7702126348,12158.6708838021,19179.7608522502,20809.0293213361,19663.8624154147,13049.4703623913,12527.5431416741,13174.7409243623,12116.0334884246,13024.5615684435,12937.1334342924,14609.2574403509,13932.4348635485,13918.8445519441,20294.4761911312,19364.0185097229,19200.4759160591,13374.4395918312,13265.0367785946,13329.7099516252,13330.1267968427,13956.2319543562,13513.3070372532,13208.7374853579,13439.5556233234,12895.8814373131,18739.2685555037,20123.164507848,20055.7271385401,10771.6878472526,9191.89865684938,10301.4244256197,10721.8280763266,11811.5994766892,11728.0917821474,14487.6402274827,14158.3502734722,14049.9134436063,16332.2801052414,18162.0670916619,17800.5738852526,10049.3837132483,10029.0868599845,10292.6320883385,12552.6366995821,13050.8124954748,13752.0177769394,16227.5993887183,16164.3104439889,14832.806368787,14781.772368913,15430.5655041428,16135.5439244528,10647.5304697348,9329.31539641011,11356.9240289727,15229.8116300524,14856.3624946328,15160.5659811074,12343.3047234005,12861.0315029915,13398.2968048337,15572.2889395105,15593.1133687765,15678.4674875118,10377.551739675,9552.86732562911,11007.0363882586,3619.27185071939,5109.03413491072,5400.76676639349,15231.1192155971,15432.8898832204,15917.0678026688
,38,19288.2472383652,19761.5138870778,19560.3916522467,11558.7069528138,10745.982730105,11279.6031442905,10792.7132481035,8846.49377246512,15765.1017799645,11499.130298993,10817.9485570895,11372.9839411429,18743.578636966,19582.3829530875,19070.3562776514,12851.0422735882,12792.1727069957,11921.3792196813,10239.9301147723,9247.56417576974,10110.3331577138,13302.4469699381,12575.9986480303,12318.3606387707,19201.0006093244,20843.433700274,19671.5651761721,13025.3486491756,12505.651337412,13156.8337931177,12148.8075096164,13035.6015534438,12959.7665162587,14670.3367822739,13979.9632359482,13973.2124133026,20345.5942667567,19434.4549841198,19269.1071944915,13386.6624125421,13281.9491799744,13360.2775230834,13344.4910983614,13962.4866601512,13539.4426518291,13227.3142430181,13449.0832278218,12914.7806984211,18930.3221812657,20301.9107343397,20158.2089568518,10753.9139762466,9165.78505594892,10272.3155203664,10723.068469823,11791.2210835773,11733.3795719397,14486.8645370204,14171.6575894343,14057.5517802266,16986.6536028065,18530.3252371577,18518.2220172285,10016.1422953356,10005.8478870426,10253.0265186663,12526.8939507472,13024.4636383776,13736.864757918,16323.3238955631,16282.5287247441,14959.0000457466,15819.8815538512,16680.0202500719,17171.8474539674,10659.930748458,9340.11274971624,11380.161178297,15251.6082385206,14867.7883283232,15185.2722980585,12367.3551007381,12886.1744979497,13411.1813921933,16669.1375322984,16754.0260680907,16824.5526064273,10331.7116467785,9536.74438954717,10984.7837148652,5399.78338844769,7261.33341035571,7477.28056729539,15206.9785672353,15407.5880685728,15903.1605742295
,39,19274.5466990658,19760.6753643056,19558.9258140472,11552.3063237609,10726.7151708682,11281.5784578303,10807.8674792228,8850.40438330412,15676.4884072733,11612.313004913,10962.2431004568,11560.5797787598,18729.4561536975,19577.5748933915,19040.2874711246,12855.9842248897,12770.1726170974,11914.0001844107,10228.7764408312,9219.08748805488,10085.6147676342,13416.3916612369,12715.2774161941,12415.4768109655,19221.9451171951,20871.0430573913,19678.8753654996,13014.686257536,12493.7005811877,13151.8234834705,12168.8213894785,13045.4143438559,12977.7449383891,14700.9239715854,14016.375874028,14030.8027631445,20398.7082080536,19495.3317623,19321.5374956071,13393.0397933485,13290.9873985181,13370.5880785287,13364.5746840259,13975.7171598114,13558.4923654415,13249.1577596619,13450.7486092831,12922.7028465691,19080.1721186091,20438.0048762155,20261.6799019825,10735.174671596,9146.91168646974,10248.1597188036,10733.4109562283,11798.2335940354,11731.6673634008,14490.2165055339,14171.6546326808,14061.6719636865,17453.490016041,18798.3460842559,19038.3079969065,9985.03857273681,9985.83623279005,10190.9656284767,12508.0901841192,12989.9785238213,13716.5208123685,16411.9675414409,16369.6619605795,15051.3342266103,16533.830446695,17542.2594477667,17883.5437598335,10680.0885603034,9350.95034944855,11406.1609979304,15276.9326047296,14872.5921043786,15194.7554174673,12389.5590300894,12914.2521652313,13427.9140769063,17429.3582498841,17561.1921488817,17584.4710995282,10314.6025089281,9516.36431047441,10969.1899961858,7253.08503720549,9236.9963738637,9325.22263421283,15184.9044643647,15383.4756534843,15881.9249190541
,40,19222.1302598187,19737.035621008,19547.1236166492,11549.9622540119,10715.1443108445,11278.2765791617,10842.8635123494,8867.04175260584,15599.7088509495,11726.2082342189,11088.5472104412,11723.9998291683,18702.2859312469,19577.2941310005,19000.0334327873,12868.8679665941,12758.2414318333,11930.6567713943,10217.2933942361,9193.73995711154,10062.6675644889,13492.76101463,12836.2678681433,12504.4645155444,19233.5131879048,20884.113085542,19678.822758177,13009.2071286054,12477.7010956524,13161.3730099518,12179.867724249,13054.5340951789,12988.060731376,14728.370517266,14059.7663776419,14093.6811693173,20428.0144732739,19544.3647646022,19364.2652562065,13396.311803189,13309.2737548731,13370.2225434215,13381.9931325265,13978.6895477004,13586.0845535468,13271.4261618714,13453.9482278324,12939.7829520868,19215.517828808,20551.9967770728,20372.5584937456,10721.0556193011,9124.57820227442,10224.1406922049,10745.7729714165,11816.6517303266,11736.6430383083,14488.1799931022,14156.574869275,14051.8814080889,17841.4556812641,18998.2384123748,19461.5573676446,9951.8899672345,9960.01776433728,10135.9311987786,12499.1489488508,12958.4805567915,13678.006043664,16502.6993769109,16463.7531943812,15141.7560411764,17075.29927792,18197.7417486617,18428.2118702995,10701.6449641537,9363.74199369001,11442.8802237149,15310.4366483432,14889.2420932424,15200.9903108321,12417.5448864015,12939.5683516372,13461.5978214981,18013.1965421785,18175.5524227595,18181.2869245373,10340.2646057016,9495.01295237698,10950.0701492314,9065.26015970665,11036.0230254347,10944.5929671458,15166.2764021201,15354.4365269917,15869.6728163312
