,Temperature,A1,A2,A3,A4,A5,A6,A7,A8,A9,A10,A11,A12,B1,B2,B3,B4,B5,B6,B7,B8,B9,B10,B11,B12,C1,C2,C3,C4,C5,C6,C7,C8,C9,C10,C11,C12,D1,D2,D3,D4,D5,D6,D7,D8,D9,D10,D11,D12,E1,E2,E3,E4,E5,E6,E7,E8,E9,E10,E11,E12,F1,F2,F3,F4,F5,F6,F7,F8,F9,F10,F11,F12,G1,G2,G3,G4,G5,G6,G7,G8,G9,G10,G11,G12,H1,H2,H3,H4,H5,H6,H7,H8,H9,H10,H11,H12
,65,21480.6596814883,21893.3550699144,21658.6745021401,20369.1698260931,20047.1546974103,20167.7528432914,19665.9347791762,17827.1936399528,19922.0434086432,19820.9061952444,19925.366381089,20515.6790404278,21835.6249798204,22665.4829091719,22567.0267652575,20337.8534846796,20376.41867166,20817.5276309366,21337.4659271321,20578.2032581141,20520.5366027908,21245.844667842,21267.9833998334,20494.8220134548,22001.4676105442,24286.5709329287,23003.2561518542,20837.5384809995,20296.4704414112,20924.7610602066,20321.4526607017,21435.8795516168,20596.9534275054,21067.0549243348,20537.2197728023,20306.7889788493,23012.0989754388,22732.3874946987,22506.5584645262,20809.7848873146,20778.402842222,20924.400664313,20835.3175688557,21056.9489252647,20639.2398697495,20315.9843883462,20610.2984483325,19829.0176481118,21721.3644915638,23036.6927756422,22846.3483676934,23095.1565428151,20865.7924671214,22991.5079485416,20883.2567550687,21124.0298224902,20942.5882117402,19895.3824409898,19234.6923062289,19565.2675069005,20606.0953972742,21539.3569381897,22176.6793126526,21945.6758089907,22221.1375321725,22520.4204660668,21775.635486664,21668.6921012078,21877.2146708594,22121.7272808397,21745.5949001023,20210.5437245761,20068.2967416665,21102.2603814148,21252.2809909674,21574.7865620353,21230.6421265177,22802.4004152131,21911.1946099177,21148.8383329166,21482.885390241,21235.0927025057,21023.9861027421,20848.7050253315,20908.3056972224,21036.0292605193,20975.9883135981,19119.7048348665,18907.589596127,20390.7516940657,17878.6147466927,19770.1101496,19169.2407505724,22636.9077965032,22649.8951208837,23434.4665203363
,65.5,21421.1285036496,21791.8900811062,21594.0659508919,20369.6086590526,20050.7150485873,20152.0809626314,19660.1045564061,17814.1900666385,19936.8626381888,19835.1458517204,19945.7496776314,20555.0572090866,21764.2648168203,22590.2734201076,22540.8211086091,20301.5717814715,20354.0345664177,20789.7142108584,21317.5013297248,20564.3938655839,20525.2890558259,21213.4496881657,21231.354516655,20486.0182297346,21941.7970495552,24196.3141910471,22901.3148459939,20829.2018217309,20338.8848115326,20908.4538823434,20298.3390295992,21397.2853729682,20578.7672729609,21059.933776782,20587.6456095283,20326.1694061452,22922.7345145854,22633.5911050458,22412.1803362308,20788.9360735005,20744.169779359,20953.3082350451,20859.6380458176,21069.4271508795,20645.2263944806,20348.714128546,20647.8105953075,19882.6132528229,21631.0290443187,22916.8533891308,22747.9144254137,23043.791036057,20893.3349573105,22935.5964176029,20906.5516026437,21134.2675501134,20951.325503922,19939.5519325562,19274.528628342,19650.1640110485,20576.0650398766,21430.387932532,22059.492956741,21872.9781482386,22168.3308489311,22465.541618882,21748.567923004,21650.9582632613,21842.6728692818,22089.6250214591,21721.4728511328,20203.6399132475,19980.9093786792,20989.6428118856,21141.720060097,21506.3955881092,21197.8129917686,22747.8778430061,21856.868921881,21111.6765569439,21434.930126252,21246.2512978562,21044.456844163,20881.0586978768,20806.3926139489,20917.0365135962,20852.2145008588,19128.6146981581,18901.270540907,20389.7130590786,17788.8482662216,19692.403310664,19102.617013416,22558.0452626969,22584.0375475567,23418.3997298418
,66,21361.597325811,21690.4250922981,21529.4573996438,20370.0474920122,20054.2753997644,20136.4090819714,19654.274333636,17801.1864933242,19951.6818677344,19849.3855081965,19966.1329741738,20594.4353777454,21692.9046538202,22515.0639310433,22514.6154519606,20265.2900782634,20331.6504611755,20761.9007907802,21297.5367323175,20550.5844730537,20530.041508861,21181.0547084893,21194.7256334765,20477.2144460143,21882.1264885661,24106.0574491656,22799.3735401337,20820.8651624624,20381.299181654,20892.1467044801,20275.2253984966,21358.6911943196,20560.5811184164,21052.8126292292,20638.0714462544,20345.549833441,22833.3700537321,22534.7947153929,22317.8022079355,20768.0872596865,20709.9367164959,20982.2158057772,20883.9585227795,21081.9053764944,20651.2129192116,20381.4438687457,20685.3227422825,19936.2088575339,21540.6935970736,22797.0140026195,22649.4804831341,22992.4255292988,20920.8774474995,22879.6848866641,20929.8464502188,21144.5052777366,20960.0627961038,19983.7214241226,19314.3649504551,19735.0605151965,20546.034682479,21321.4189268743,21942.3066008294,21800.2804874866,22115.5241656897,22410.6627716971,21721.5003593441,21633.2244253148,21808.1310677041,22057.5227620785,21697.3508021633,20196.736101919,19893.522015692,20877.0252423565,21031.1591292266,21438.004614183,21164.9838570194,22693.3552707991,21802.5432338444,21074.5147809711,21386.974862263,21257.4098932068,21064.9275855839,20913.4123704221,20704.4795306755,20798.0437666732,20728.4406881196,19137.5245614497,18894.951485687,20388.6744240915,17699.0817857506,19614.696471728,19035.9932762597,22479.1827288906,22518.1799742297,23402.3329393473
,66.5,21302.0661479724,21588.9601034899,21464.8488483956,20370.4863249717,20057.8357509414,20120.7372013114,19648.444110866,17788.1829200099,19966.50109728,19863.6251646726,19986.5162707162,20633.8135464041,21621.5444908201,22439.8544419789,22488.4097953121,20229.0083750554,20309.2663559332,20734.0873707019,21277.5721349103,20536.7750805235,20534.793961896,21148.659728813,21158.096750298,20468.410662294,21822.455927577,24015.800707284,22697.4322342735,20812.5285031939,20423.7135517753,20875.8395266169,20252.1117673941,21320.0970156711,20542.3949638718,21045.6914816763,20688.4972829804,20364.9302607369,22744.0055928787,22435.99832574,22223.4240796401,20747.2384458725,20675.7036536328,21011.1233765093,20908.2789997414,21094.3836021092,20657.1994439426,20414.1736089455,20722.8348892576,19989.804462245,21450.3581498286,22677.1746161081,22551.0465408545,22941.0600225407,20948.4199376886,22823.7733557254,20953.1412977939,21154.7430053597,20968.8000882856,20027.890915689,19354.2012725682,19819.9570193445,20516.0043250813,21212.4499212165,21825.1202449177,21727.5828267346,22062.7174824484,22355.7839245122,21694.4327956841,21615.4905873683,21773.5892661264,22025.4205026978,21673.2287531938,20189.8322905904,19806.1346527048,20764.4076728273,20920.5981983562,21369.6136402569,21132.1547222703,22638.8326985922,21748.2175458077,21037.3530049984,21339.019598274,21268.5684885573,21085.3983270048,20945.7660429674,20602.566447402,20679.0510197502,20604.6668753803,19146.4344247413,18888.6324304669,20387.6357891044,17609.3153052796,19536.9896327921,18969.3695391033,22400.3201950843,22452.3224009027,23386.2661488527
,67,21242.5349701337,21487.4951146817,21400.2402971474,20370.9251579313,20061.3961021184,20105.0653206514,19642.6138880959,17775.1793466956,19981.3203268255,19877.8648211486,20006.8995672586,20673.1917150629,21550.18432782,22364.6449529146,22462.2041386637,20192.7266718473,20286.882250691,20706.2739506237,21257.607537503,20522.9656879933,20539.5464149311,21116.2647491366,21121.4678671195,20459.6068785738,21762.785366588,23925.5439654024,22595.4909284133,20804.1918439254,20466.1279218967,20859.5323487537,20228.9981362916,21281.5028370225,20524.2088093273,21038.5703341235,20738.9231197065,20384.3106880328,22654.6411320253,22337.201936087,22129.0459513447,20726.3896320584,20641.4705907698,21040.0309472414,20932.5994767033,21106.861827724,20663.1859686737,20446.9033491452,20760.3470362326,20043.400066956,21360.0227025835,22557.3352295967,22452.6125985749,22889.6945157826,20975.9624278777,22767.8618247867,20976.4361453689,21164.9807329829,20977.5373804674,20072.0604072554,19394.0375946813,19904.8535234925,20485.9739676837,21103.4809155588,21707.9338890061,21654.8851659826,22009.910799207,22300.9050773273,21667.3652320242,21597.7567494218,21739.0474645488,21993.3182433172,21649.1067042243,20182.9284792618,19718.7472897175,20651.7901032981,20810.0372674858,21301.2226663308,21099.3255875211,22584.3101263852,21693.891857771,21000.1912290257,21291.064334285,21279.7270839079,21105.8690684257,20978.1197155127,20500.6533641286,20560.0582728271,20480.8930626411,19155.3442880329,18882.3133752469,20386.5971541174,17519.5488248086,19459.2827938561,18902.745801947,22321.4576612779,22386.4648275756,23370.1993583582
,67.5,21183.0037922952,21386.0301258735,21335.6317458996,20371.3639908911,20064.9564532952,20089.3934399914,19636.7836653258,17762.175773381,19996.139556371,19892.1044776248,20027.2828638009,20712.5698837218,21478.8241648199,22289.4354638506,22435.9984820149,20156.4449686389,20264.4981454488,20678.4605305456,21237.6429400954,20509.156295463,20544.2988679662,21083.8697694603,21084.8389839413,20450.8030948537,21703.114805599,23835.2872235206,22493.5496225531,20795.8551846567,20508.542292018,20843.2251708904,20205.8845051891,21242.9086583735,20506.0226547829,21031.4491865704,20789.3489564328,20403.6911153286,22565.2766711716,22238.4055464341,22034.6678230494,20705.5408182442,20607.237527907,21068.9385179735,20956.9199536651,21119.3400533387,20669.1724934045,20479.633089345,20797.8591832074,20096.9956716671,21269.6872553384,22437.4958430852,22354.1786562954,22838.3290090247,21003.5049180668,22711.9502938482,20999.7309929444,21175.2184606059,20986.2746726493,20116.229898822,19433.8739167942,19989.7500276403,20455.9436102863,20994.5119099012,21590.7475330944,21582.1875052304,21957.1041159654,22246.0262301422,21640.2976683643,21580.0229114754,21704.5056629708,21961.2159839366,21624.9846552549,20176.0246679336,19631.3599267307,20539.1725337691,20699.4763366157,21232.8316924043,21066.496452772,22529.7875541779,21639.5661697344,20963.0294530529,21243.1090702958,21290.8856792585,21126.3398098462,21010.473388058,20398.7402808551,20441.0655259038,20357.119249902,19164.2541513245,18875.9943200268,20385.5585191303,17429.7823443373,19381.5759549199,18836.1220647907,22242.5951274716,22320.6072542486,23354.132567864
,68,21123.4726144565,21284.5651370653,21271.0231946514,20371.8028238507,20068.5168044722,20073.7215593314,19630.9534425557,17749.1722000667,20010.9587859166,19906.3441341009,20047.6661603433,20751.9480523805,21407.4640018198,22214.2259747863,22409.7928253664,20120.1632654308,20242.1140402065,20650.6471104674,21217.6783426881,20495.3469029328,20549.0513210012,21051.474789784,21048.2101007628,20441.9993111334,21643.4442446099,23745.0304816391,22391.6083166929,20787.5185253882,20550.9566621394,20826.9179930272,20182.7708740866,21204.3144797249,20487.8365002384,21024.3280390175,20839.7747931588,20423.0715426245,22475.9122103182,22139.6091567812,21940.2896947541,20684.6920044301,20573.0044650439,21097.8460887056,20981.240430627,21131.8182789536,20675.1590181356,20512.3628295447,20835.3713301824,20150.5912763782,21179.3518080933,22317.6564565738,22255.7447140158,22786.9635022666,21031.0474082559,22656.0387629095,21023.0258405195,21185.4561882291,20995.0119648311,20160.3993903884,19473.7102389073,20074.6465317882,20425.9132528887,20885.5429042435,21473.5611771828,21509.4898444784,21904.2974327241,22191.1473829573,21613.2301047044,21562.2890735289,21669.9638613931,21929.113724556,21600.8626062854,20169.120856605,19543.9725637434,20426.5549642399,20588.9154057453,21164.4407184782,21033.6673180228,22475.2649819709,21585.2404816977,20925.8676770802,21195.1538063068,21302.0442746091,21146.8105512671,21042.8270606033,20296.8271975816,20322.0727789808,20233.3454371627,19173.1640146161,18869.6752648068,20384.5198841432,17340.0158638663,19303.869115984,18769.4983276343,22163.7325936652,22254.7496809216,23338.0657773695
,68.5,21060.6656586028,21190.923878087,21215.8844472181,20368.5947728243,20071.1324136992,20054.7459567945,19619.3210038193,17733.5723954878,20014.1622317332,19906.9651244342,20048.2978280877,20771.4741360612,21341.9948937055,22142.6882503315,22368.292860643,20082.857536673,20221.995429178,20618.712450747,21191.9019162998,20477.8139230521,20549.2383188883,21016.4188927353,21005.567176311,20421.3021529285,21589.2345846012,23659.9514856497,22298.7556312864,20777.2496942276,20604.4370018568,20805.3424661146,20154.5819311632,21163.2835527853,20466.0270551136,21010.4481843938,20893.9747020805,20425.6076770644,22396.8319391357,22044.5228730501,21851.1014367356,20659.0813655597,20537.272065384,21103.7278053567,20998.3895512315,21135.2642820059,20674.0050151026,20537.3788187326,20864.4266572312,20190.2646955684,21098.4174514873,22206.0052422438,22161.6158118699,22738.1439511397,21073.056420979,22600.4238159403,21046.5214507687,21187.1897017437,20997.7437822746,20198.1224332999,19512.6733995295,20165.901897863,20403.1391993985,20783.547386483,21358.1631660744,21440.7801935796,21862.2389243758,22140.2685889579,21587.0619651336,21547.4481452014,21640.045733329,21886.8218358782,21570.084250331,20151.2867280014,19461.5324986546,20315.6564412867,20480.6355538688,21102.3682220892,21005.1343756221,22424.911289187,21530.7212082737,20888.2903606673,21146.4800292108,21312.4017464707,21165.7391242323,21066.719786245,20202.9371844778,20206.950569749,20115.6457815944,19184.9651689377,18869.410278531,20380.0199698356,17235.1357376246,19208.8397049218,18685.5438365019,22090.351597035,22195.9897733958,23321.9899567562
,69,20990.0779191476,21104.9714335717,21165.7264216403,20359.8655164643,20074.7044524212,20033.9695137184,19605.4916598655,17720.1053988389,20006.0035199792,19895.952185796,20039.761623842,20776.6624250599,21276.1761412003,22069.3468531214,22311.9935904376,20039.6817615539,20200.920697129,20584.3353683346,21157.6124517027,20453.9345937224,20543.1273997427,20977.4205468323,20960.3903685485,20391.687680923,21532.9394110277,23574.1465751821,22209.218536801,20760.3323631871,20665.495968887,20779.275965089,20117.8982353684,21118.6768772982,20442.9601217261,20991.1319290647,20948.2692157465,20411.6386976116,22319.3245291841,21949.943099438,21762.6881731242,20627.9317404658,20501.4608789071,21084.2132118283,21010.3106474896,21126.614001589,20666.4403086118,20556.9618175981,20885.7520636556,20213.0405020673,21022.628193782,22103.9411857135,22072.8510653945,22690.1488133839,21123.073117816,22543.265633859,21067.8575552901,21178.4363485289,20996.6133072457,20231.7801566117,19550.7231676925,20256.997561083,20368.6536860743,20688.8382105142,21246.7506510044,21372.662773204,21827.6917337985,22087.9587537633,21558.8958074131,21528.8643703892,21610.9261560437,21836.6800985027,21533.187012908,20124.1550062311,19383.0457660648,20206.8484481717,20374.0782552139,21047.7531966186,20976.4538866678,22374.0181598693,21479.2290730877,20846.3433050927,21095.8409789475,21315.1214579289,21180.3678429501,21079.77121697,20117.9876470113,20095.7688123154,20004.2027725712,19192.865740392,18874.7267689909,20372.3875567759,17123.435031263,19105.0156648335,18592.4928596167,22021.2928259848,22140.7574044694,23316.7168043303
,69.5,20907.418667886,21022.4150498153,21114.0581800152,20340.4155779131,20072.049510675,20008.9841310935,19586.2482363384,17704.3117146607,19982.3269984641,19879.2401646574,20017.8981927638,20764.5289425929,21206.337195393,21989.0839333315,22236.0840147623,19981.890172577,20178.5397480666,20543.8260468059,21107.9421669973,20419.4007611358,20524.0274600223,20928.1869043972,20912.6783747197,20348.2561740922,21467.2226723882,23478.0912357113,22116.1943590183,20728.9634863088,20725.6436744896,20743.6374444843,20069.1589252572,21064.48549014,20417.3895550372,20965.227397384,20985.0504994565,20377.5306331458,22239.4565636847,21850.8797997391,21669.7313274941,20582.2240328196,20459.7860541022,21037.1370609589,21010.9793060939,21095.3076022756,20646.4829883202,20568.641652189,20896.9643897667,20215.6823426452,20943.306732082,22006.6295964914,21980.6461402951,22634.6017482418,21149.108351297,22478.0174163407,21081.7617878014,21151.9516771181,20985.932380095,20253.1832419543,19582.091506005,20343.0119420975,20314.2872875505,20597.1821889502,21130.0820976553,21302.3651947087,21793.7788059744,22029.3358778839,21519.1766393594,21501.9872090899,21579.4434575759,21772.517863103,21485.1673484199,20082.8352702294,19303.5236925149,20095.7778277402,20266.3909296441,20993.7463278688,20943.3558695189,22318.6158393137,21426.1730868628,20794.9127310194,21037.6081096061,21306.0607647066,21185.3467752216,21076.2398005266,20032.9836034825,19986.8577391027,19898.0083772529,19194.0653251742,18882.9123994131,20360.0675069294,17004.692432748,18993.1597412953,18492.531457858,21948.9336304167,22081.7372238576,23312.5068164328
,70,20807.7218642988,20931.5146677162,21048.8686011347,20302.4700282423,20057.4252529382,19977.0070080597,19554.899485505,17685.2137034642,19937.3656468307,19851.4253643488,19981.7177600697,20728.0590031839,21119.1486764242,21894.0805825519,22135.9559236873,19903.7866858325,20143.5748827875,20490.8738704706,21037.267422551,20370.5186878107,20492.7413734854,20863.6531511518,20852.2361670586,20285.1170049162,21382.8889223934,23360.2381934058,22008.9651784728,20674.4792737319,20749.4769993128,20691.4284947652,20004.1004699329,20990.7380461941,20387.8557891876,20926.078863302,20984.5969067421,20321.2010301067,22145.6021310496,21737.1771484095,21561.0231411452,20514.1552062997,20402.5657054138,20955.2422016806,21001.231053538,21031.226673371,20608.200508631,20562.3203984677,20889.5295129421,20193.5557685636,20852.6069588872,21905.7343293986,21875.8761377597,22564.9973607729,21141.787614223,22396.7132553993,21077.0765178882,21102.0259552038,20960.8836052158,20256.4454342449,19596.046788216,20413.7948146567,20234.4626505156,20501.857785366,21002.4520282785,21218.0263605641,21748.4662219198,21958.2461183782,21460.4888508133,21455.917215729,21535.4813904383,21691.4126913155,21419.3416839674,20020.0313840864,19215.9766869715,19973.4975099875,20150.1451464015,20930.5970996953,20893.9634293055,22249.0160240438,21362.9437610537,20727.3256581431,20963.796916402,21277.802441228,21167.8782348887,21052.3630225496,19940.9373400778,19872.8787950656,19787.99903311,19184.9012768097,18883.7391491702,20337.4766495981,16875.4092283689,18867.2550884259,18381.1031992658,21864.7966832631,22009.0956130473,23302.1619641501
,70.5,20683.8291339066,20825.1936971538,20959.8438018623,20237.193826483,20023.0733142014,19927.6132693911,19506.421162899,17654.4967061065,19858.6681529586,19810.6173357728,19921.405403837,20660.7418122384,21010.4118894885,21778.5977985084,22004.5142634869,19799.1655051503,20088.8002509458,20420.9442147256,20939.0565615179,20299.9347569329,20449.4187726169,20776.7697525363,20772.4995616989,20196.0761074274,21269.4369559911,23212.2833445046,21880.9216543522,20590.4536621768,20732.5351850618,20618.5923803145,19913.522202322,20887.7554735841,20347.8841626127,20864.8227884732,20943.3329558693,20236.879846251,22025.5519008227,21601.4646521257,21430.0757736851,20414.6782298965,20322.1568939832,20835.8004766778,20977.0265332131,20932.2878409239,20542.6339355792,20532.5407740219,20857.2851880571,20140.2215240212,20739.1321736935,21791.0306237296,21748.8979647225,22471.9929221289,21092.8076879911,22292.4079879617,21044.0786361499,21022.834144479,20910.8282765645,20235.2908607594,19582.6870408607,20441.3105698885,20123.9571872161,20392.7259386225,20857.5769247931,21112.5147149886,21680.4300149762,21863.7729572342,21378.6445357409,21381.6805003204,21471.5152617421,21584.595762379,21326.3625830299,19932.1595287065,19117.4769534095,19833.7235022453,20016.1733655104,20847.9780938663,20817.3496546908,22160.5337559372,21278.336167278,20634.4792095927,20866.977081686,21223.0359756983,21120.3106868967,21000.4050331168,19831.0777704996,19745.1340326616,19666.328256632,19151.9187095401,18861.1696683653,20294.6804676714,16731.2231847819,18724.3292489559,18249.8726374147,21761.2546750393,21912.3433296458,23275.429251769
,71,20537.0931129587,20694.2713303041,20838.386930721,20141.1606663369,19962.8051444822,19857.0547556046,19430.8320578532,17605.6450224424,19748.1272698031,19747.6507077049,19835.3762597202,20564.7716560687,20877.0957051509,21642.116918711,21848.7848472673,19666.5827050643,20004.4256910926,20326.1333615078,20812.9027042612,20203.3776486506,20391.4640416859,20661.0891283377,20665.8993931615,20081.625789764,21128.0713798083,23033.9110245873,21727.8909877775,20476.0663709768,20669.5759979085,20519.8645125112,19798.0341792723,20755.3462812295,20292.4663728089,20775.7326832117,20857.6259138469,20126.4547867782,21875.9123125112,21442.3427300381,21274.3280319717,20283.1712572889,20212.1110645472,20685.8441955706,20934.7703330346,20799.5917390453,20447.3775260674,20473.1777362149,20793.8126351474,20057.8847834524,20597.993307349,21654.5209250526,21596.2725992936,22351.149834962,20997.3072128582,22160.7405943363,20978.8079059978,20913.7478462412,20830.551121335,20185.1435555462,19537.3318813895,20422.7829041963,19979.4895067062,20262.0833552999,20691.7115307109,20981.150995639,21581.626703749,21743.1277590607,21271.0451253459,21275.7628444446,21378.7823300172,21448.405127584,21203.4181603772,19816.9200621588,19005.1596987712,19671.876327337,19861.0872522418,20737.4908739169,20709.2973104652,22044.1177018154,21163.5278641693,20510.9047026124,20741.4282726146,21131.975329202,21039.0660789605,20918.4040098199,19696.1169212757,19596.815118851,19523.8872231129,19087.4322798636,18808.6321769015,20225.8051379961,16564.090334227,18557.7714248929,18095.31369323,21632.9650434727,21785.9179792972,23227.1092659766
,71.5,20368.5609411733,20536.6774751167,20687.0697660561,20016.6497461935,19870.8853442698,19761.9253250605,19326.1549785444,17533.952431412,19608.5601208369,19663.6908116312,19720.6891654583,20439.6999319812,20720.628143468,21486.6686297579,21666.9753448037,19510.4164677324,19892.3926165708,20204.2012846395,20661.2705714294,20081.3450820024,20318.7383113192,20517.3155364375,20530.5020363548,19944.0448336472,20960.3610627399,22827.169069725,21549.0547575712,20333.5300348311,20561.3974142317,20394.6710268299,19659.950851749,20593.1336064945,20218.6337920661,20658.2658517167,20731.2644218874,19993.0809636087,21699.1415845534,21257.8173508589,21094.3809603091,20120.3117076446,20070.327561331,20508.0906203109,20872.1362157982,20636.2394861699,20323.5705017077,20381.6630331225,20699.6487511933,19951.7765580706,20431.0902247171,21491.5825448916,21414.6558541166,22202.7599693982,20858.1788755148,22003.0065155507,20880.5880576556,20776.1515897815,20721.3904328406,20103.5058176517,19458.8862872192,20361.3321485495,19808.9743008961,20107.2980503405,20500.9495675822,20825.2109372624,21451.4373643316,21597.8887987176,21136.5212047604,21141.8338820724,21256.5356478332,21282.5534233189,21049.8713369553,19676.1606566722,18882.2940258771,19487.1843367322,19682.7397980669,20596.5725483765,20571.2728254712,21900.6729494796,21015.5127800156,20358.6509568765,20588.2903704179,21011.4832399529,20924.7897113709,20807.7285274264,19534.6312667558,19426.964734946,19359.7746469681,18994.8120104842,18721.6872849686,20130.1230300326,16372.4755666433,18367.7169695611,17915.7219320333,21477.7624261818,21629.8266993945,23128.3387550959
,72,20181.7196922181,20353.9700909578,20508.1392892529,19867.5595285842,19752.8302036558,19643.2674243558,19197.2037838713,17439.7113572908,19442.4319258421,19551.6163933913,19579.2393435195,20289.1619308342,20542.5340383844,21329.441263743,21463.5597364616,19334.9142168974,19752.7207199884,20060.7873088201,20486.9720713837,19937.7300756691,20231.5344514547,20348.4177072341,20366.7679956318,19783.7201008012,20771.2714048864,22596.1651617581,21349.2823908097,20168.7412449185,20413.6812777858,20245.3411268601,19503.5665758185,20401.4988204179,20117.3207575009,20513.1331498065,20573.8286132405,19841.0335421974,21497.5474060255,21049.9655797269,20893.8652342437,19931.3622331661,19900.6315565794,20306.0522727312,20789.3876557036,20451.6533152556,20173.7021198304,20260.6364812481,20576.7116747859,19823.9038785126,20240.8451137072,21303.4589132757,21209.8022174183,22029.7411615412,20693.1063784113,21822.2686548635,20752.5045899034,20616.1143025298,20587.3488911655,19994.6367317277,19349.4950746235,20259.1422813728,19616.3955337056,19928.6159261556,20291.7142941909,20645.4142720443,21292.2611212757,21428.478679432,20981.5459160897,20983.3286816421,21108.9470100717,21092.9474702096,20867.7849947335,19515.8514500254,18748.6506513262,19280.1489354481,19481.5637529278,20427.2138718858,20403.6781484215,21732.7688951851,20836.9170579819,20180.0644215712,20408.6919428735,20863.5635840506,20779.7213051712,20673.4304003197,19348.9383442251,19235.3969702253,19171.567828751,18874.0956854341,18600.2522226855,20006.3782265864,16160.5278471422,18155.0144755928,17712.3949294454,21297.9494900711,21447.4151508577,22984.7564254434
,72.5,19981.9831484114,20150.9389482346,20309.4806047183,19698.2397530873,19609.8811723731,19502.8352440881,19045.4768383212,17321.4359861355,19253.3870364396,19417.538616051,19416.1192502601,20120.1753884432,20348.8751823042,21171.5933203059,21242.6756629034,19143.5411426438,19591.2765741837,19897.9585959689,20295.4051600965,19773.9798838405,20121.4501220804,20158.8432338832,20182.8362685094,19607.6850025049,20567.2504848263,22347.6105396751,21133.4378789159,19987.1513874743,20246.6874238521,20077.1120068912,19332.1351558524,20189.277106966,19976.3441917237,20343.9318237997,20396.8436769169,19675.8588658786,21277.5432129551,20826.251654919,20677.6688096511,19719.0523256509,19707.6304987887,20086.6515922352,20676.8312297266,20254.5127460752,20004.5132233313,20115.3240187328,20429.2119614445,19678.0798144888,20030.8461193854,21093.5880297978,20985.5253455605,21835.3517017136,20507.2386419501,21620.8038264603,20599.4239026862,20437.9004404874,20431.900804372,19862.2478671636,19216.2696867391,20124.0946004229,19407.432876624,19728.5932362423,20066.1434701779,20449.410837795,21108.7845625322,21239.4800328831,20811.3320639573,20804.3350473548,20941.3004537616,20881.0304826588,20662.5803956981,19338.8612221211,18604.9680087726,19057.4412692995,19262.6451232227,20236.6301442316,20213.8730953901,21542.67552507,20631.2104254041,19978.435995866,20206.3259248402,20693.3356052801,20613.222090829,20518.6755228825,19142.0221303662,19024.6330664591,18962.9979191982,18726.9332265181,18450.6837267136,19859.677003709,15931.7739187237,17924.8329326774,17487.8844911177,21097.6602905562,21244.6272542278,22803.1086727044
,73,19775.120299959,19932.7816174484,20097.9734290972,19513.2832560929,19448.5199104168,19346.2802445357,18875.1129310526,17183.2912139397,19052.5893858908,19260.2619253299,19240.6939388481,19941.2668004675,20141.9130897501,21014.4340596844,21010.1039692871,18942.053508793,19412.874782234,19721.9280483939,20090.3034611961,19593.7591427189,19978.9968593792,19953.1566263426,19982.5965805365,19420.2627729739,20354.7608597922,22089.1558940563,20904.2774187709,19792.9060399974,20061.7309126826,19891.1065527052,19153.603690338,19962.8119323654,19801.8543464399,20156.6498262725,20203.6830529814,19504.2624124085,21045.714001259,20590.1387572478,20449.5305748892,19494.3638638108,19495.7092724725,19853.40705195,20532.0906155724,20047.7613509354,19821.8896836407,19949.5423028853,20262.9341901987,19521.4040688367,19807.5053853943,20867.7989784005,20749.2892706785,21624.5522576158,20303.7705802534,21404.2028316117,20425.617703539,20245.8541355873,20260.1919649474,19710.2739505911,19067.0886724406,19972.5160205411,19183.5636357458,19512.813682581,19828.0523070321,20244.2162538453,20907.4954792185,21035.9215708179,20630.8829918735,20611.6308723456,20757.3050413885,20652.6574771285,20441.767011658,19149.6361196071,18450.9224089572,18822.049379491,19030.6648134964,20030.219655435,20008.8202170262,21334.3350994679,20408.3975628062,19759.1738973154,19986.3345660891,20504.1878050091,20430.7310401693,20350.568819925,18921.4911694544,18799.7284179103,18739.5205821427,18563.8857855229,18283.8512316692,19694.8634623702,15690.1940496764,17678.8629793248,17250.195746406,20880.94080696,21027.0977825559,22589.7527796439
,73.5,19562.983543029,19705.7245251854,19881.2803164363,19319.6296043573,19273.0802831573,19174.4094047337,18696.310878259,17029.6395841371,18840.729268352,19086.2178089145,19054.3088911662,19750.7120341495,19926.1903703607,20858.5273549757,20769.8143447073,18733.5692144389,19224.0370941976,19536.7275047611,19875.8270166598,19400.8596350363,19808.7209376091,19736.5619444633,19769.4330797088,19227.3179417148,20137.3239948345,21824.8410350066,20664.2926677724,19588.9547257,19865.0191419873,19694.5385349067,18978.4953347686,19724.8354382322,19598.8223243395,19956.6028808425,20000.7658338809,19327.7354581438,20803.120522584,20345.3160779492,20213.8740004829,19260.1554584478,19269.010722527,19610.5501246642,20362.9444473511,19834.4322690827,19629.8062652608,19770.2251627124,20084.3524481416,19354.4194867108,19576.0171937928,20628.1994214404,20502.847934783,21402.1091379999,20091.7538612358,21179.5351637669,20236.2210691984,20044.5601434421,20078.3374826754,19543.3654526066,18905.7632876315,19806.4652882815,18950.612870255,19285.6005346261,19580.3372599753,20032.189212407,20693.9434416302,20821.6126301121,20442.3306932401,20411.3254245881,20563.70736195,20414.994827111,20207.5936002912,18954.0450788029,18282.696914964,18579.0120675192,18789.0636851405,19814.674861793,19792.435733063,21114.6062125489,20172.3500978974,19527.1471876422,19752.6993456763,20304.6284008012,20236.2128865561,20174.3724610087,18691.480027437,18564.5559988959,18507.1221125015,18389.5128895419,18103.5383591709,19516.4372820827,15442.6055969707,17421.8145236806,17002.691319448,20651.3620762903,20800.0588845007,22353.522293512
,74,19350.5301470225,19473.0835860806,19659.3038534557,19119.6541714957,19089.2248440909,18993.300700468,18510.0202610591,16866.0532117289,18620.8382491577,18896.1470628209,18859.158969096,19553.5041672361,19703.8532796765,20701.1877370721,20526.2750907334,18519.5332807011,19026.2794157195,19347.6584185921,19654.3294321408,19198.4627265915,19616.3501729633,19512.3778701944,19547.9406048634,19026.8063482046,19917.5230131943,21556.8567875932,20419.6703255454,19379.421999566,19661.1116271921,19489.5607993425,18807.7275374671,19479.5983213018,19371.9562470436,19746.4008242473,19790.1149872497,19146.4238228556,20553.8271881838,20095.8667350409,19973.7230530995,19019.2018458157,19032.3990493497,19360.6354517543,20171.7454298423,19618.7583675788,19429.9493722074,19583.3937464408,19896.5836282713,19178.741592632,19337.9476280647,20379.9554206688,20252.1561467085,21171.1613206208,19873.7597493421,20949.446516547,20037.9298690826,19837.6815377139,19888.2174828021,19366.7714155334,18737.3461642603,19631.5292412772,18712.1297227644,19049.5556606006,19328.8080153045,19816.7289889429,20471.6086626376,20600.1770068351,20251.4389648388,20203.7164909437,20365.5219509817,20170.8101505135,19965.4357861046,18765.9705676472,18090.3921456058,18330.9493251713,18541.2424927912,19594.5195887029,19567.3369260631,20886.079284654,19926.773301544,19285.2746106945,19507.818290487,20096.9056093736,20033.9817089031,19992.6846909405,18451.329801296,18322.2884761692,18265.359256413,18205.695727065,17916.2134048422,19327.5190395688,15191.2788751659,17155.8651570005,16747.3629278549,20414.824499538,20567.7045392491,22112.0352209264
,74.5,19135.8583491092,19238.4577307417,19434.589949387,18915.4974795152,18898.2622904392,18804.5112609543,18317.1995209142,16695.1443132144,18396.4914052214,18698.6340432962,18661.1289860335,19352.2221025853,19476.8514570866,20515.5490377965,20278.9077455454,18303.0562133618,18823.6761239811,19153.5105715171,19430.1545860009,18987.9742233818,19405.6545195994,19283.9445306632,19321.1680161703,18823.5024042045,19697.4395815452,21288.5047299921,20171.1583630312,19164.280728069,19451.7161815561,19279.2949297547,18639.4403822586,19231.4583360046,19130.6720277316,19529.0448796748,19574.9480766116,18962.4472254573,20300.4081771455,19845.1645599219,19729.4900165822,18771.5776452182,18788.3063033264,19104.4994518129,19964.9348918277,19399.4204061022,19226.8166544712,19389.6314840837,19702.1610796659,18997.8878819282,19095.8902420153,20126.3467030195,19997.0813236055,20935.6117421795,19650.5013047694,20716.99742924,19832.3456988455,19626.3779412581,19692.1322124189,19182.0541889791,18563.012966682,19449.4787200845,18469.7353325539,18808.0670659225,19071.5322978457,19598.7663910973,20243.4735301878,20375.27151228,20069.0898891141,19990.9716858173,20161.6395316725,19922.2001960379,19717.7815729438,18583.8715472698,17878.3322479993,18081.5118913669,18290.4793772542,19371.6938722275,19338.8898089332,20649.6663401354,19675.5427350288,19035.2166687912,19254.4847811433,19881.7492407475,19827.3270420832,19809.1468271966,18208.0995372679,18075.3327252436,18019.6882168577,18017.0595356976,17724.0224175482,19132.3658835067,14934.6756832652,16884.2319719097,16486.9302690749,20174.435511383,20333.8787042869,21866.7194882356
,75,18918.3923377837,19002.1223575003,19209.1418149389,18709.1665777843,18703.4389889264,18608.2448866174,18123.0565017165,16522.1100641596,18168.9567717867,18492.8349281352,18458.3557696498,19145.781131651,19248.6015847544,20306.3305010773,20030.1568983364,18085.2040386721,18616.2703284306,18956.2077328581,19202.8419307529,18772.026775183,19185.5473427007,19051.9116786553,19088.6740254028,18617.1311099462,19477.4267277412,21020.9104568788,19920.9860525266,18944.7891073495,19237.0018990747,19063.5481711283,18471.7982937138,18980.1307748663,18886.6238480713,19307.6768888909,19357.4017453004,18774.9635907621,20043.1987407758,19593.6139147477,19484.6806857297,18521.7050791426,18538.760538615,18842.7110150438,19749.8567413757,19176.5478823037,19020.0525107359,19190.3370868283,19504.4348747431,18814.5530894006,18852.1401184944,19868.4541091739,19740.9140212082,20696.9540919825,19424.8469956243,20485.4180701658,19623.1381863693,19411.3748007332,19491.0473763011,18991.3812624434,18384.2684584627,19261.2238975071,18223.0538358733,18564.1536160261,18812.9173049327,19378.0457314779,20012.3041741843,20146.7852068996,19897.4057622565,19776.2979263972,19952.9951004214,19671.143493323,19467.8245480446,18411.2365490541,17652.1600911191,17830.4488091679,18038.2233859212,19145.4906563139,19107.8150366561,20411.1153388912,19419.2492455465,18780.2567914605,18996.0513043948,19661.9157901062,19615.1806578961,19636.7502497585,17961.2842814795,17826.7200855889,17772.3168967577,17826.4164228746,17529.3444575337,18931.6515710591,14673.7922718825,16606.6476523066,16223.8339841508,19933.64412074,20097.6955474999,21618.1933321963
,75.5,18701.1054557125,18765.8018753203,18980.3099410523,18502.2435758292,18507.2592521034,18407.6785182456,17929.2540799098,16346.9359890766,17936.6340423578,18283.1412405076,18249.77462646,18933.6535172016,19022.3991838154,20078.1824813016,19782.6103724435,17864.7034276084,18406.6069911869,18755.8279701217,18974.8138908158,18554.7617704715,18966.4582143785,18817.7030719083,18852.843046351,18411.2817922042,19262.6013680041,20753.7140768481,19670.9043687372,18724.0079315277,19020.8127514208,18846.1973535624,18300.9605622475,18725.940566413,18640.8099787376,19084.4214066419,19138.2873520997,18583.7349758445,19784.7190601299,19343.2183284699,19240.579688886,18267.0077073843,18286.0596061753,18579.061228165,19531.8398425169,18952.16361725,18809.037630041,18988.4833367102,19301.4749398374,18630.1438008225,18609.2641200993,19606.4830486353,19484.2250386892,20457.580216915,19201.1226778084,20254.4637874041,19413.454058741,19195.7675426439,19287.6189211031,18795.4171566127,18200.2485950018,19067.2227605322,17977.7321668307,18318.692450833,18554.5110705439,19154.9350043492,19779.7660580802,19918.0478738092,19732.9669682464,19561.225949196,19740.9571997163,19420.7031518668,19215.4837448172,18249.1762769307,17415.8180820689,17580.3238561595,17785.5550728709,18917.9920135944,18875.107734129,20169.6747115305,19156.6589131265,18521.8355572149,18733.9794061341,19439.4302184903,19400.181550786,19474.7642784777,17711.888319999,17578.2116438646,17522.6518137973,17631.7541056465,17331.2047249866,18727.3415487771,14410.1768968342,16327.0847143439,15956.1078407629,19693.7284854113,19861.7277697289,21368.3505842179
,76,18481.7312877076,18530.6430535273,18749.1154636803,18292.9770444433,18309.1921830302,18205.8094818661,17733.0801156965,16171.1833313876,17702.7053862935,18068.257406497,18036.6113047392,18719.349417949,18797.6172819309,19832.8302144364,19536.4763951373,17641.763178902,18193.4126497786,18552.7521752723,18746.4030792607,18337.6380061579,18747.2548552377,18581.3256725032,18619.3726642798,18202.4528852634,19051.5394982138,20486.8100710479,19423.9479322536,18501.6365419949,18803.2709621148,18623.8616981305,18109.4951627076,18470.7083825029,18394.9072161756,18857.1732458086,18917.5851018843,18388.9349559685,19528.9794319474,19094.4636092788,18997.0078155499,18009.740138577,18031.5777391631,18313.2082824547,19309.9820445416,18725.3161441813,18594.6696617338,18782.7805289673,19096.4569504823,18445.4948537013,18366.1384541485,19346.515027045,19228.7127675051,20218.2925308278,18975.5564407863,20022.1651098953,19201.6080163455,18979.3019956932,19080.9653523477,18595.340193509,18011.4337339685,18870.8866722524,17732.7230361108,18073.5561524599,18297.2015812046,18928.5354401554,19546.5754872832,19687.4185722035,19575.8848422444,19342.7103581291,19525.0022198953,19169.4868532416,18963.2701758323,18094.4909550444,17172.1926444306,17330.3830324,17534.8714493961,18689.446319296,18642.4256257564,19927.3608250924,18893.1226666318,18260.5695550413,18470.887980222,19214.6958673803,19183.3195604419,19321.4338650201,17463.4664195198,17331.0440968804,17272.4066924808,17434.4521895478,17130.2523960878,18519.8733740788,14143.7152680537,16046.984995526,15687.084884977,19455.6656754751,19625.9618791512,21115.3355947165
,76.5,18259.6162873132,18296.1414332754,18519.3407474947,18082.4093589681,18110.6136392251,18000.9391574713,17536.665803262,15994.693085306,17468.1757325579,17852.3082905099,17821.7291332583,18501.493964874,18574.7839942258,19574.2659798064,19291.0600697738,17416.8866516089,17978.5058119726,18346.2035995948,18516.8197857363,18120.0065032169,18526.7992824164,18345.0403524365,18384.5989096138,17993.7862620766,18858.3052769217,20222.0986745881,19177.7726735069,18276.9234786049,18583.6434938746,18400.1397436608,17898.0799846537,18216.3980902999,18150.5284249815,18628.4604300059,18696.5548143092,18193.8761865737,19275.3650737243,18847.6632915544,18753.8485647553,17751.8098350621,17776.7666069877,18047.6076185192,19088.2228339274,18495.3353125607,18378.2025026098,18572.3778956388,18887.8195532506,18261.4450278679,18123.1249761596,19088.2520062636,18973.7832197331,19978.3406904461,18748.9697860571,19788.5919379711,18986.132695454,18761.3768989725,18871.461868927,18390.2121977812,17817.9075922333,18669.7834269659,17489.2821349774,17830.0583343892,18040.7549918765,18699.5830231242,19313.009484131,19454.3019417539,19422.0255065022,19122.7092025693,19304.9782948951,18919.1133009821,18710.4979137245,17922.465858631,16931.3181533308,17082.4006560217,17286.0994244304,18458.2940490382,18409.8122665597,19685.0079527317,18629.7500186219,17997.1848304912,18208.1157274838,18986.0130095721,18964.3603729954,19177.3908480948,17218.9658554531,17084.2186576741,17025.0774086269,17235.43303939,16928.0464452939,18310.1746134253,13875.6304007582,15767.9176975418,15419.5231734561,19218.228249219,19390.1134331882,20861.7196253654
,77,18038.8914640576,18063.8740130974,18290.953964844,17869.7409799321,17911.1244319881,17795.7056719821,17338.6069925067,15816.8335201719,17230.9138609586,17633.4963490263,17603.435519892,18278.7036467649,18355.5855955352,19318.554520443,19048.6585715452,17189.8762333608,17760.5437503267,18136.7080296208,18285.7058050341,17903.5856392757,18305.7528686087,18107.8779327669,18150.6956217437,17785.7322701328,18679.5356146312,19958.8038995575,18932.6876543238,18050.4649452859,18362.0161908771,18174.7930846555,17672.1038025324,17962.9007642556,17907.0585205725,18398.3676998755,18475.1613036894,17997.8238861049,19024.0216562009,18602.2948381568,18512.7802053314,17496.1027720075,17522.9500421245,17782.9083390027,18864.2912145173,18263.5829334426,18157.8184207322,18360.4874954104,18676.07200105,18082.6947167183,17881.8890114013,18830.5629831559,18721.3030547603,19736.5603197491,18523.074217769,19551.9989938355,18768.8971283359,18539.7391291287,18659.6651277039,18182.2199392818,17622.2680628663,18466.0790803082,17247.9612630991,17588.4625718795,17788.163267535,18469.4619705135,19078.7962273564,19219.3551005255,19247.6919331764,18901.5712306518,19081.4131721504,18669.1128709361,18459.3446484649,17735.7979579963,16692.9048852905,16836.2788670977,17040.223476325,18226.3161281743,18176.6945014606,19443.4650293442,18363.7915242977,17735.7776856608,17948.1394887582,18755.3142321717,18741.5232871235,19037.4543053557,16975.5096757362,16839.7599631736,16779.346951593,17033.3647566233,16725.1729288862,18098.1798979207,13609.3690360487,15491.2070436341,15153.4914062929,18981.4839860132,19152.7646826718,20606.815668207
,77.5,17818.7078318189,17834.9331370022,18062.5950444245,17655.0621560372,17711.9556365079,17589.4506055929,17138.8313413835,15636.6076819489,16992.2432009461,17411.6851061861,17383.2988294401,18054.2147672456,18138.259673654,19065.5101100955,18807.2965330419,16961.1696174353,17542.3206182416,17925.0408458114,18054.5601451162,17688.2838437118,18082.8855395697,17870.3754615415,17917.7319468579,17579.8373629829,18513.3410956492,19697.333562586,18688.9450398904,17823.1790926797,18138.3791411522,17948.0516346938,17434.6140723197,17711.1252568336,17664.8419311796,18167.0863394875,18251.0326090577,17801.2419640875,18774.6886164383,18358.9544710239,18272.4171967918,17242.7569337328,17270.881757821,17521.2068019031,18640.6692491559,18032.516019992,17935.0391544278,18148.0659662393,18460.9560362881,17916.000132049,17642.1523877305,18574.4505725324,18470.3037882343,19493.6925539679,18296.7238385176,19311.7578697871,18548.2815748577,18317.26551233,18445.7684141138,17970.4068688899,17423.683272671,18259.6384723913,17010.5798177952,17347.9223842373,17537.2279416379,18239.5307719803,18843.6538171001,18984.2139822229,19051.3697243939,18679.2273663991,18855.4497385696,18420.8022318024,18209.2436178035,17534.0333141204,16455.1383786682,16592.3057901482,16796.8914428431,17994.6997753212,17944.464635455,19201.5318939513,18098.8165928368,17475.8854494334,17690.1670479612,18522.2265838854,18518.4708831769,18876.4210128912,16735.059461023,16597.2032856427,16536.4822983175,16828.796951028,16519.5797924057,17884.5295642834,13346.9223912477,15218.3083727828,14890.3567387916,18743.6698268988,18917.2427573417,20351.4959221487
,78,17598.5233483755,17607.4338285424,17837.7245717328,17439.0127648118,17510.1943949866,17382.0785410218,16934.6759431695,15455.0073806187,16751.6809150331,17188.8578671242,17162.0083350153,17829.0203763155,17921.2686051608,18814.9428827777,18566.4900633128,16731.3189807417,17321.3184306134,17710.6143848639,17823.1898210039,17473.0533882662,17856.7359336935,17632.9843566128,17684.7795401687,17373.1705787195,18353.8807669492,19437.4492091496,18446.799076824,17593.7171669729,17913.1002714401,17718.8000214022,17189.0307940968,17463.1287565335,17423.3868768002,17933.1252186371,18024.389845079,17616.7889657793,18526.9995282833,18116.845076146,18033.5847912819,16990.8970243147,17019.4267453281,17261.7951648933,18416.4699832153,17801.8261712941,17711.9514180388,17933.0279929084,18246.3497377683,17758.4904452307,17403.5328988453,18321.979202272,18221.2729460687,19249.1741928217,18067.7682165921,19069.9536370925,18324.1675733143,18091.5828510096,18229.1296924906,17756.9234987536,17222.1309992671,18050.2834221444,16775.193117775,17108.8127562841,17288.4854108367,18008.7364163807,18606.9395045233,18746.9779104769,18837.0198375455,18454.5128656079,18628.5278212325,18172.6843272189,17960.9668246449,17316.6665064717,16219.083594412,16350.0707422632,16556.2182753226,17764.3854956203,17712.9109209208,18962.4831789603,17837.8283173372,17218.3695312411,17434.6778697776,18288.7929239107,18292.0787244485,18695.1462770597,16498.4942329678,16356.0674759064,16297.3370307194,16624.4970319735,16312.6129924762,17670.3746339711,13088.252919224,14948.7792502623,14632.0157023545,18505.6983902287,18680.7657672813,20095.6100440215
,78.5,17379.6386220803,17380.204649944,17613.5724873812,17221.6014080757,17306.8431139368,17173.226877296,16727.4190759841,15271.5199059778,16505.1716592831,16967.1211129722,16941.4228607658,17603.0741653161,17705.2881032975,18566.6976477247,18326.1533011151,16500.8289799171,17099.8274776941,17494.8767730727,17589.8750280933,17257.1333235403,17629.0387444347,17398.2754335323,17449.9859902783,17168.0991286639,18199.5167608501,19179.6867740668,18205.5431535322,17362.5270391546,17687.1741697376,17489.7245938636,16945.3390088512,17217.4068473603,17183.0117445099,17700.5650794503,17796.224705768,17445.2576176796,18279.5926685628,17875.7757889423,17796.4689016462,16740.9551235451,16770.8899036508,17005.0515686709,18191.2197745658,17571.7979755447,17488.1480713677,17716.6489039619,18027.7808722868,17610.4317946931,17167.410169494,18069.9559285969,17974.6485951988,19002.0674073529,17839.1666510449,18826.2816815101,18099.864308666,17863.1418337887,18011.9740476203,17542.6311512601,17019.3235312985,17837.5851337796,16542.8370159265,16871.1692260098,17042.3673844341,17778.9722606138,18368.9636187334,18510.2317789568,18606.7317868403,18229.4625708209,18400.5681171955,17926.6857586542,17714.0016267574,17087.0097190249,15986.0948601914,16110.9875508377,16316.6981201113,17534.1681124258,17481.8618503196,18724.2424725951,17576.7016878009,16963.8812113772,17180.7810007816,18053.7323230992,18064.8132351444,18494.1831865395,16262.8467630877,16117.2113660782,16061.0541216795,16420.8545687549,16106.0599201748,17456.6484713626,12833.6282530393,14682.8757541764,14375.6042665391,18268.3223060788,18444.5359279422,19839.0610672904
,79,17162.5854520778,17154.7074859667,17389.8137882928,17000.4860282707,17101.4468903481,16963.7753382736,16518.7496865445,15085.8978370417,16250.2621005651,16745.6039247077,16719.5017572588,17378.1114716137,17492.1458672537,18321.5016958613,18087.6153094793,16266.7138336606,16875.1280377022,17277.1952007132,17356.9427803797,17040.9312141829,17400.1426654827,17164.3432416422,17216.8925952733,16964.9048920957,18023.6740407578,18922.8110236618,17966.385361746,17129.8273449805,17460.6448731762,17257.8120827819,16704.928488873,16971.5482912913,16940.8801811838,17465.7704811311,17566.6149757181,17281.9549080259,18032.7143440886,17636.3397811494,17562.6205360946,16492.1624262153,16523.1046438463,16748.5032111719,17963.0150712468,17340.3483802425,17262.6024500555,17500.9628695993,17807.9042018342,17468.6857719195,16933.9314333923,17819.8642244782,17730.4263688101,18752.961479052,17610.5793195693,18582.3962792493,17874.3400113777,17633.7236759016,17793.8526210507,17327.6416950994,16812.5176338272,17623.937028601,16313.3403843216,16634.2985552614,16798.1590329483,17550.6257450653,18129.8608216405,18273.6173948867,18361.1913504521,18002.7946285422,18171.0317825651,17680.7727123274,17468.4291547192,16858.1480344063,15754.6700160154,15872.5232660027,16079.2678233492,17305.1647005749,17251.2395949398,18486.2966110679,17315.5988808861,16713.2650904459,16928.3871301816,17817.9845616342,17835.851148805,18271.2467240705,16028.2754659662,15881.4587735296,15826.510252624,16216.2774205768,15897.6871142151,17242.7722568023,12582.9046372248,14419.7457282507,14120.0918569261,18030.5532456599,18207.8156113861,19581.0845881979
,79.5,16946.0610491502,16928.4171625123,17167.0705552989,16777.6994621075,16894.5430073657,16751.3317996711,16307.9659228568,14898.2364268054,15988.1898827358,16522.267641208,16496.6418873315,17154.7882712823,17281.672194815,18077.66577352,17848.9630338798,16026.4654470418,16648.4243749273,17058.0804952711,17122.5651736474,16821.980019021,17169.6288370211,16930.039058812,16983.3897064283,16767.2972487792,17830.0712076203,18667.4544392529,17730.0213294878,16893.9293889453,17232.0201917374,17021.1075247913,16463.9661334129,16724.7301572724,16698.5652532112,17229.2793361528,17333.8442146153,17125.3542775824,17786.5600757004,17397.9195016644,17329.8492353878,16243.6356831432,16273.9364690082,16492.6693106417,17731.6363720636,17107.0371228377,17036.4140928103,17283.1325827089,17587.1243408928,17322.5363797182,16701.4458882946,17572.3143870103,17486.9283585011,18503.1940729972,17380.8156068382,18338.4414542463,17645.7741726133,17404.1695343905,17573.0993763381,17110.4451040852,16601.5340940289,17407.020077245,16085.6503880713,16398.2267347032,16555.0358809749,17323.2735081241,17888.6403041917,18037.7269269932,18115.4467558345,17774.0369788056,17940.3249646252,17435.7610656247,17223.5176743872,16629.2923269328,15525.0878823836,15635.2927023535,15842.1878719895,17075.8993828107,17019.9334479622,18247.7001284036,17056.6082041687,16462.4263101199,16675.761727098,17580.2039376414,17607.25287248,18029.9564606486,15794.0101814276,15646.663392162,15592.1012695952,16009.2857813778,15685.8099784479,17027.1733472278,12332.4024889678,14155.8099450537,13862.8064322037,17793.0286515011,17970.9272625817,19321.2170031842
,80,16733.1336009002,16701.5615146667,16945.314677062,16550.6047285378,16683.9032855538,16537.6665630252,16093.0916455828,14708.8163631379,15714.7901971872,16300.9961244857,16271.815993958,16932.7359488016,17077.3346956643,17836.5443042649,17611.3151359244,15776.5804481422,16416.4016893663,16835.4774738194,16885.3218348279,16600.597224016,16937.7466426848,16696.7689652348,16750.355505306,16582.899448442,17621.6420426281,18413.7377297911,17496.3600585892,16653.0459032132,17000.5735513564,16781.1169309636,16223.1165483815,16475.506068896,16454.4384463823,16990.4579633098,17099.8343509738,16974.5406113559,17540.5007642937,17160.2628433233,17099.721230605,15993.4362897283,16024.8695624621,16236.3460209243,17496.3053899758,16869.5642040608,16807.6863367761,17063.0881143039,17364.840900261,17156.5518878985,16470.4085484278,17326.4659892352,17245.3381349384,18252.4634874358,17151.0872057157,18095.0618457328,17416.6082050645,17172.5987617275,17351.2319695747,16891.8142498746,16386.6514290066,17186.8028543663,15857.9846405108,16163.4446596753,16314.3882912632,17094.7653647802,17647.0723894423,17801.0268209103,17870.0938035973,17541.283075174,17707.9632824929,17190.8267806624,16978.1494360386,16401.6121333802,15297.752691693,15399.8911295203,15606.027498777,16846.2996564363,16786.3272513916,18007.3387284887,16798.0519845378,16211.5705248718,16423.2453391896,17340.440662479,17376.0203897333,17786.0070592901,15561.0734534297,15412.643990285,15358.3890201907,15799.4522854214,15472.3723523727,16808.5875117564,12076.992352718,13888.8775834364,13600.3757327005,17556.3343872137,17732.7656394391,19059.3883456733
,80.5,16521.3594854094,16475.7751799499,16723.9354973094,16318.2344859836,16469.3022246975,16320.4753913784,15876.8156260156,14517.9790741863,15426.3705673239,16078.2573865522,16046.1988085517,16710.4106116819,16880.2943393499,17596.7118886452,17374.9074758484,15513.4316370436,16180.9255820249,16609.3264044533,16644.2553821163,16375.1764179244,16704.3637826159,16464.2389064456,16517.4823708101,16411.3483278842,17400.1056822284,18162.5396445142,17265.0597871347,16405.2407121012,16763.6577439713,16536.9334926973,15980.9012840896,16223.3996947792,16208.850247415,16747.2963337397,16864.7871022648,16803.6557858713,17295.4773500677,16925.1546404417,16871.1191403857,15743.8559016299,15776.9273724835,15978.9392095296,17256.4949680425,16626.4918573532,16575.1663216995,16841.0137625603,17138.578819373,16971.8915901751,16239.6697828341,17081.2293731391,17004.4037206582,18000.5394648615,16921.4745191823,17850.663967755,17186.1487754699,16939.0936187983,17127.9980648842,16670.9802714024,16169.144515406,16963.6381441195,15630.0048580593,15929.6694820028,16075.3979053283,16865.1421994045,17404.6781952728,17564.4737191803,17623.8350850872,17304.4210198795,17472.8266247615,16945.9968285564,16731.9082652098,16174.0756862135,15071.2322598789,15166.0551723353,15370.8327640706,16613.0702507104,16550.2043333804,17762.2879941411,16536.0634495726,15959.0987309778,16169.6046949701,17096.9027084194,17144.5687976903,17540.0291620415,15328.1026499815,15181.1227839348,15125.7093976452,15584.2932949764,15254.5405877134,16584.9781403354,11810.7964141597,13613.6566849362,13327.9790186845,17320.0008489924,17495.1831662002,18797.3378435809
,81,16311.6102953865,16250.6556585749,16505.2058560133,16077.5656068393,16250.001232063,16097.4729689105,15654.7168185653,14323.9024937936,15123.3425922063,15854.8550664901,15817.4971366894,16486.5548481917,16694.0216715895,17358.6421699892,17141.0603619939,15229.9356438004,15938.3237300576,16376.402939083,16399.1187602599,16146.3483872395,16469.1669666786,16228.582703867,16282.2211254267,16249.9242096524,17167.3107625527,17912.7438972359,17034.6596770224,16148.3248777112,16518.5695534406,16286.6360559093,15735.2871418393,15968.2057307381,15960.7070828648,16496.3778054724,16626.2972363038,16611.0864752113,17052.5935947594,16692.3671615321,16644.8430254641,15493.2113746385,15527.1004998196,15720.0397493471,17013.1349086148,16377.8180719961,16339.5634259073,16618.4866000948,16912.1462627033,16770.4522949173,16008.7738124745,16838.8303234641,16764.8153744623,17747.478580964,16692.0140671212,17607.1645802269,16952.0104005145,16702.4172437116,16901.1614211263,16445.8260985654,15947.8955533291,16737.4404045147,15402.8734748476,15697.0585132466,15837.6222642948,16635.3719518391,17163.5773720493,17327.8798083843,17374.1393917735,17064.0362515031,17235.8720815,16698.768367305,16485.0842421124,15945.782238159,14845.9106975471,14933.0588947941,15137.4713591711,16377.672095562,16310.3463956466,17513.5654060925,16272.9138070139,15704.3831980774,15914.6009708751,16850.660092051,16911.5742867435,17293.3525546156,15096.2878111312,14950.0203111625,14894.4376257837,15359.9903413586,15030.0861959837,16354.4640554721,11527.1803209885,13325.6047557431,13041.1368515067,17083.395455323,17256.3360170944,18535.5715817954
,81.5,16104.5723250974,16025.4466580052,16287.9025661346,15827.8359676465,16021.8830915117,15866.7962005084,15424.6098120806,14125.3798047957,14802.5095010883,15628.6206486443,15585.858003419,16260.3277460363,16525.7675412347,17122.0139797438,16907.2631063923,14921.2250307476,15686.8840591238,16133.8157057354,16145.1629867219,15913.6233261665,16229.6908561758,15987.9589312661,16042.8937038612,16094.5823901617,16936.4677588389,17664.4392035752,16805.9416360594,15878.2492445992,16262.6935819225,16027.8789146038,15487.5370604352,15709.0697635229,15710.8748185645,16240.3737674139,16383.2384182905,16399.4506299708,16811.1415298481,16460.9568602856,16419.1235880487,15241.5876380474,15275.7481660568,15460.7027555679,16765.2028188405,16122.5989613067,16099.5347043192,16391.7132522042,16682.9267438361,16555.2835483113,15777.431545327,16597.2835894484,16526.891872616,17493.9180563375,16462.9338422011,17364.0620882356,16715.8274690017,16460.9047252276,16671.1792348858,16217.1495901679,15724.7390916017,16505.9189618229,15175.4062829675,15466.1612144597,15601.0337796825,16404.1764726981,16922.7819652601,17092.0442752821,17122.8826353833,16819.7605743218,16995.518493622,16451.2587909114,16236.6372191866,15716.0548856182,14622.2076591096,14701.4426732889,14905.9145783838,16139.0512222196,16066.5134657748,17260.8151139368,16007.2368667119,15445.6738872697,15657.3143472455,16603.6302578698,16678.4685952048,17048.9774653386,14866.5273082735,14720.6424294237,14664.836141727,15127.3855495385,14797.177064791,16114.9643386529,11217.7246088108,13018.9215342574,12734.4529605972,16847.8660697338,17017.001924525,18272.7324144634
,82,15900.0069160211,15800.2041616301,16070.6188489401,15562.7495218914,15782.9115225651,15626.5375022947,15186.977098023,13923.7671676746,14457.0077831094,15401.2186523751,15351.0529139235,16034.5744726645,16372.6626925493,16887.8586448575,16676.2240716363,14575.994998754,15421.906112829,15879.3353814414,15882.3059455722,15677.2871189276,15985.9749885251,15741.7421420075,15796.030793709,15934.6055231372,16706.2906823036,17418.3178980719,16578.1263783151,15595.2722843377,15996.0313533427,15760.7685154648,15238.0862250172,15447.7306379372,15457.7112040868,15976.8268684937,16137.4879093941,16170.8413727218,16568.990724543,16231.9924455481,16195.52643649,14987.4614366465,15023.7780598173,15200.1709858415,16512.9181661542,15859.8542133713,15853.9133846146,16162.3536936301,16450.4057163562,16330.9042371399,15547.4903063679,16356.8293502032,16291.3122955284,17238.9799780173,16233.7249205362,17120.6433538103,16478.008269185,16216.1674376173,16439.5437757824,15985.670612005,15498.1903224541,16270.9300869199,14949.4614824883,15237.2893637452,15365.5346840114,16171.9289114798,16684.7547859939,16855.2693494263,16866.4161109376,16570.2479554788,16751.8494277587,16202.0639865422,15986.3993482714,15484.739017996,14399.784767591,14471.8988668547,14676.1914084211,15898.1624816404,15818.5169297629,17005.1833758427,15738.8063654647,15184.944436429,15398.496026516,16358.4102894044,16444.9879603398,16807.1450349098,14638.6217795501,14493.5738940761,14438.3257571189,14886.2420910443,14555.6250800702,15867.8339969348,10873.6680692171,12690.2975955698,12402.6029263214,16612.4098382444,16776.9115085137,18011.1159039445
,82.5,15695.0752489011,15577.4554230448,15854.7463767438,15283.1664431945,15531.603003732,15375.8421745573,14941.877836867,13715.4186604008,14087.6292592706,15168.72512934,15114.265631089,15806.0719251541,16229.2763679748,16653.9128602912,16447.84837602,14190.6905132855,15143.654675195,15613.2605363537,15611.4078841995,15436.3807614011,15738.9294935948,15484.1253239931,15538.5676771075,15747.2855358012,16475.8965307973,17173.6835039975,16349.907198916,15299.9710611303,15718.7205314473,15483.8117625248,14985.8734596823,15184.0376699645,15202.3131641373,15705.0400339594,15886.3107146618,15924.7006976022,16329.3273647855,16004.4650618666,15971.8483256036,14731.8740565004,14768.6261485617,14937.7360499584,16255.0827417749,15587.1835196985,15602.4061719277,15929.2261212679,16212.8097388337,16104.2599691991,15317.8103439304,16117.8085311136,16057.9979206421,16981.9152717947,16003.2418047078,16876.5610145415,16236.5761315189,15967.0599815578,16203.2807482355,15750.3342127173,15268.4559747761,16032.2089153827,14725.1015500951,15009.7786961138,15131.3829263545,15940.0440333446,16447.3814959448,16618.2639314927,16605.5589650286,16316.6603853269,16504.093628885,15950.9701617112,15734.2408434509,15249.5532175597,14178.1183675841,14243.5732001459,14448.2068366498,15653.5003463939,15567.2862182549,16746.4981857698,15467.5634132118,14921.6369659605,15136.742125677,16113.9927988253,16212.3903516386,16565.6096850989,14411.3163464638,14268.9233057211,14212.8127880734,14633.6387080611,14301.7104619898,15611.5076214807,10488.3511314439,12333.9379707504,12041.0203629396,16376.4852003086,16534.9117511333,17748.9270195382
,83,15493.135531619,15356.973159928,15640.8014506976,14988.7576584164,15269.5586279177,15113.1932552274,14685.8490862254,13499.3952198726,13697.6379188952,14932.3569940904,14872.1059576256,15577.0221077419,16093.1903530384,16421.8980728643,16222.2632221049,13767.9703434204,14850.7004819087,15334.4231893341,15334.6685224038,15191.9397160636,15487.3639698991,15209.4941809409,15266.8320521859,15526.5208879531,16245.9901636265,16930.6300362272,16123.1772015556,14992.3000140317,15430.6122228994,15196.5662885182,14730.8325934944,14914.6522740847,14943.1806529681,15427.7244627554,15629.216256695,15673.0913080703,16090.701605138,15777.6677873891,15749.2855581735,14472.2963398574,14509.0293752275,14672.129395359,15992.3389621195,15305.5890997101,15346.3191088218,15692.1560463569,15971.9074693192,15875.7464586003,15090.2019745599,15881.065309174,15827.1656829972,16722.5344772792,15774.3466858055,16633.132831783,15991.3815401809,15714.6517731509,15962.6072073606,15510.7447425738,15035.734132514,15788.7868310848,14504.0800111113,14783.8647416229,14898.2017237558,15709.7716419643,16211.4732206376,16382.1220921975,16338.7491032256,16058.8917254929,16251.3129052351,15695.9157490708,15478.3812808288,15011.6811597235,13958.2796256341,14016.2605645827,14221.7878440773,15406.8795709091,15313.6584518618,16486.6138338799,15194.6496843504,14657.2279893927,14872.8759495819,15872.3009926765,15981.1236514278,16324.1957975307,14184.808324024,14043.2779594303,13987.7236283897,14368.578618132,14038.2817501703,15345.0243903748,10064.3105377929,11952.8366535485,11651.646217956,16140.0697440287,16290.3898588355,17483.7342938972
,83.5,15295.1740451746,15139.042009521,15426.9914566725,14680.3429968622,14995.7661014343,14840.6422159143,14420.7790917793,13276.0782947537,13285.4308174874,14688.7332456838,14623.6093871693,15351.1127449268,15955.7026670321,16191.8672989682,15997.4990820782,13311.1036784369,14542.9998960053,15040.9034888389,15051.5979710632,14941.2302436756,15229.7696178438,14912.448840786,14974.201902797,15268.85668738,16016.473330451,16689.087459605,15898.3378624342,14671.997475917,15129.5386297785,14896.9343306371,14473.3361955128,14639.8114543746,14679.1244056343,15143.7256404317,15365.6498420896,15416.2831498284,15851.7175985015,15551.3807093502,15526.1803422733,14207.5348886431,14244.1317051302,14402.4161575396,15721.8845347786,15011.5786604481,15081.9064392069,15446.9495150873,15723.6167692886,15641.3866354558,14863.8189609889,15643.9067651874,15598.6330558399,16462.0044751814,15544.2488873151,16388.567724718,15741.0031088825,15456.2367875388,15715.691431475,15267.8279492745,14798.0923052205,15540.9088532919,14283.1982084708,14558.2816189876,14666.4092041565,15479.9255252414,15974.4203666089,16145.143722423,16065.2993376824,15792.2842021445,15989.3228685264,15435.6930740815,15216.6399480726,14768.3246372109,13739.0655235535,13789.2236015592,13996.5769018691,15157.3991643248,15057.0658896138,16222.5363882508,14917.2163967497,14389.383696857,14606.4942568589,15632.6217505347,15749.4564613337,16082.8932227295,13959.7646619614,13818.7818892338,13761.3507098574,14092.8061047956,13762.8677905943,15067.8070552663,9609.13442111107,11541.2964463086,11231.5287354151,15903.1311386532,16044.3081593235,17216.3982448843
,84,15099.4065924999,14923.5431271902,15213.0110093025,14355.6714943404,14710.9475527279,14555.2064597945,14142.1974921392,13044.1850314968,12848.1103372056,14439.4441376255,14369.3560422924,15134.9352983079,15797.0605569904,15961.582326003,15775.5674935623,12816.6031261915,14217.3623530514,14730.2804196006,14761.4754895641,14682.8033774611,14964.8680023779,14588.8027757392,14655.0194809891,14972.1640796641,15788.2397200587,16448.5520934168,15673.8659967233,14334.8792611937,14811.8987950805,14581.9002609708,14207.6511646205,14358.1267503459,14407.2513158612,14846.7811977087,15092.0567534699,15150.5175597573,15612.7877463423,15325.0299595417,15302.3863072282,13933.8069069384,13970.9660082516,14125.7779799859,15440.6069686823,14703.4080054171,14806.5812302455,15192.795914601,15466.8888427286,15397.7251666857,14638.6975146627,15406.3988606608,15371.2521619049,16199.7631271727,15312.6085150734,16141.7911295257,15481.3350396679,15186.8231398939,15459.117492453,15019.5062485512,14554.9481951045,15287.9060744176,14062.6729380831,14332.3903457418,14435.1534429707,15249.7450313981,15737.2142640732,15907.0187144887,15779.5869665232,15513.0443388652,15714.7190297455,15164.3596727062,14947.0667521349,14517.3390276834,13519.0321853912,13562.5710243708,13770.6927021498,14903.415706462,14796.9518274785,15953.4719416012,14633.2996521112,14115.9357436807,14333.8392191738,15391.6839212356,15516.5118308594,15840.4775692804,13732.6591906818,13592.0354510699,13532.9971146224,13801.6331657394,13474.5750218397,14778.4250260344,9124.76455268922,11080.3374714152,10759.5576018509,15664.1614968049,15796.0644045598,16947.4753361935
,84.5,14907.6477727348,14711.3060466962,15000.2498459872,14012.0876185286,14411.4371788089,14254.6433513514,13846.2052042829,12798.2507101487,12379.9448979036,14181.8885686887,14104.6678756109,14920.8129214985,15618.300968968,15730.1550792981,15553.3065367782,12274.8694616083,13868.932011642,14398.5557697118,14458.9571288481,14411.4859966357,14689.3550816581,14239.1027726696,14309.2907795056,14638.3550577604,15559.4655635612,16205.9069724227,15448.2056103297,13973.106650189,14472.6846913713,14247.1360941892,13929.8385808565,14061.4220785356,14123.1013744248,14532.2997104565,14799.1438877771,14869.3049841194,15374.7546992918,15097.6456404474,15076.8222570096,13647.5734433962,13683.1691303845,13835.9218292949,15144.8664156286,14373.3722586483,14517.7740958806,14926.9182956357,15198.7871417654,15143.6636562571,14411.9509388254,15166.4664314028,15143.4096123254,15935.1692268011,15080.2064184421,15894.0710184857,15209.0736689303,14901.7086381906,15189.1447070019,14763.9465523637,14305.2379368543,15027.1735999484,13839.147802169,14103.910548637,14202.2688246271,15018.8609409343,15497.380853238,15666.2979662523,15476.7313685429,15217.4535794348,15422.0518481354,14879.3098490045,14665.1136056015,14255.8962865612,13296.3074079903,13333.0846448161,13543.821261184,14643.0652170937,14531.3452019717,15676.6968879895,14333.3290337663,13827.1088914533,14044.5824396059,15146.2199294648,15280.8330727253,15594.3633978785,13503.2436303176,13362.1352038602,13301.331289982,13490.5244126064,13169.9065199449,14471.4098659759,8611.75106673079,10551.0085837685,10221.1241401268,15422.6667154143,15543.9192440625,16675.4078840088
,85,14721.7303794822,14496.614240455,14786.7172498499,13645.1608807821,14095.9557634359,13935.631087567,13528.2778153709,12540.0903470312,11869.9839667922,13915.8593476824,13829.9633626649,14707.7732659593,15420.1957940456,15497.2502635762,15328.4816922595,11680.9320053668,13496.0731930619,14044.233347395,14139.350294937,14125.6829518001,14399.8235670087,13867.81317223,13940.4811420394,14281.5201074092,15328.0349901743,15960.3770002273,15221.6669352491,13582.6770302521,14109.2444711175,13891.1135327753,13629.972819518,13737.8099689212,13814.5407490746,14191.5581968805,14484.2348374036,14568.853096156,15134.6840114031,14867.3477599813,14848.9709337596,13335.1364167165,13370.3495118339,13519.9463280658,14833.847325261,14018.7143278001,14215.2446021852,14648.6885451024,14919.8654623862,14879.02554302,14182.5600728302,14922.6989807412,14912.0187021413,15668.6012558473,14846.4606271853,15645.0273765457,14921.1305440824,14598.6567304299,14905.0655289423,14501.5304178259,14047.7403066743,14758.3625456532,13610.4436791042,13870.1430148813,13963.260234534,14785.5768061678,15254.5567195116,15421.835575358,15153.8437546874,14904.0656455586,15109.6114116317,14575.7892377268,14364.8568471415,13980.8249806831,13069.2783727288,13097.8258626577,13312.2285941811,14376.3554707177,14258.7930037395,15392.8535097345,13996.6515569143,13503.0027879429,13719.7289623298,14895.8015420616,15040.7614408156,15343.8404627584,13268.5471126356,13126.330263622,13064.0277942401,13156.7160347027,12844.8910446633,14145.1435515555,8087.60881125948,9959.51484503463,9622.51714264272,15177.9397161049,15287.2717065835,16401.3888701971
,85.5,14540.6958601466,14276.7994219161,14569.4096595203,13249.8784730884,13760.9329878355,13598.424525531,13185.9804362003,12268.5813475616,11309.209498962,13639.0812365081,13544.6571741839,14489.2939327799,15201.7219090442,15258.4378096916,15097.648279398,11036.1530630179,13097.4037813308,13667.3851669031,13795.8086326753,13824.497982649,14094.765930335,13481.9025276188,13554.5901968361,13910.6705861324,15091.537301728,15707.1996142972,14989.1942946033,13164.1141952596,13721.6739666473,13513.4691932409,13284.3171040049,13360.4846699457,13457.9562307474,13820.7908526764,14143.4931767877,14245.9174217822,14888.9791547199,14630.6079533218,14614.0721774276,12983.6495977036,13019.7227927316,13164.4901494231,14507.5765832734,13637.2515797049,13897.770810575,14356.0614497426,14627.4048207686,14600.7887267565,13945.3407674685,14669.277682783,14673.5828692414,15399.3117321036,14606.9994507926,15391.7557410353,14616.3413335503,14274.0121506855,14604.8042450854,14227.9317611151,13778.0545998502,14480.1701864778,13369.5641241297,13627.1064507202,13714.2624093843,14545.7015766221,15006.0634927262,15169.716474104,14811.6701880687,14571.4676051698,14777.1447831738,14249.3383258581,14041.1284782358,13685.6321031331,12832.5986038709,12853.3691984455,13071.0112428588,14101.9496073042,13977.4975383798,15099.469886331,13597.773680553,13117.5581223905,13335.9897392556,14636.1694499099,14793.9063400651,15085.8575370605,13024.1672046916,12882.4637786753,12817.3400366822,12798.4332835245,12493.8050571363,13798.1668643269,7564.40509079219,9305.73675536811,8966.66002574415,14928.401974572,15026.2004253837,16125.2400832714
,86,14368.5048692137,14049.3013421744,14344.9889618142,12827.5942745866,13405.4676837082,13240.4180946749,12820.6658504951,11982.5636083618,10695.4586017814,13353.3054120841,13248.7449377808,14254.0957670535,14961.7532111213,15008.8202577491,14857.9808079375,10351.1074379796,12676.845305747,13274.1177059935,13427.2094764861,13508.1170346861,13773.49511914,13090.2864885308,13162.1641606468,13533.705160351,14845.7223740071,15442.7628110566,14747.5517513618,12718.8236270795,13313.4851119901,13116.664735945,12864.7112542192,12893.596145422,13027.869266619,13422.2497990992,13777.6761487384,13900.8981326209,14633.1196462236,14382.2271115367,14367.8095836268,12588.7610409675,12626.5280812833,12762.5713341903,14168.4800632552,13233.8925707504,13569.4604970815,14049.4198880127,14320.8021793743,14308.8618081514,13695.2557336094,14402.0045265369,14422.2591779279,15123.9816264373,14363.2084394407,15133.9865465036,14294.4777231506,13929.3741209508,14289.0915236575,13936.890631025,13493.176843941,14186.1728170771,13113.0922891474,13369.6164651392,13447.6895428717,14296.3158502931,14748.7375521122,14907.8840546182,14452.7963946495,14223.3233952992,14428.9056049037,13899.481770231,13691.711637947,13370.6628033309,12580.9448984691,12593.2158241742,12812.8732036055,13818.9528073906,13688.9184043633,14798.1815230537,13124.4883701321,12658.2040097437,12878.9329830255,14366.425243003,14539.7039087736,14818.1057087949,12763.1330042164,12622.7401743174,12555.3740804733,12416.4417735422,12120.6690871146,13430.8293851345,7045.85000994586,8602.65142947976,8267.80983444476,14671.463078157,14758.3513498464,15843.1252505458
,86.5,14197.5557508883,13809.3952338882,14108.5510169647,12380.7106038783,13030.0127576161,12864.429380551,12435.2814373736,11681.3214165372,10036.248886877,13054.7535065994,12939.6574294551,13980.5724853852,14704.5463090238,14744.1972558341,14602.5044247836,9650.1677111523,12243.8113054785,12870.4847442627,13037.1493723883,13175.9379165749,13437.3963073252,12694.4954969014,12763.995832971,13150.2975788819,14580.8029876253,15159.3128354798,14489.7588690866,12255.9531187907,12890.0229402633,12707.2562979371,12366.1512059813,12329.9001005153,12523.6142294217,12999.1301887577,13387.977871523,13536.6363363211,14360.1729914893,14115.1418931772,14103.3185323707,12152.6153880733,12193.0656181779,12315.5558316692,13820.7076237086,12813.2065304379,13234.1440993726,13724.5399987111,13996.8762782529,14000.8979998254,13424.6035689576,14113.4876382329,14148.2056254669,14839.0940298514,14111.8333026243,14868.3373086078,13954.538452453,13566.1969987763,13956.0734118847,13617.3491665462,13182.017922716,13867.5728990862,12831.2881200314,13089.194644484,13154.7848268128,14031.4421762328,14476.0803150985,14628.6560186872,14081.8556885829,13863.8659428302,14068.4287916719,13529.6631735304,13315.6440077951,13036.3452385778,12306.5962987445,12307.6364064863,12529.0355974554,13527.331005158,13391.5334297494,14486.8156362491,12573.9382705085,12123.9861147801,12349.7777850805,14086.8254024677,14276.3142714491,14538.845880064,12478.4619973305,12340.0372603632,12269.7597936389,12014.0036968499,11725.9300125224,13045.3543431672,6554.82048716618,7903.2085659404,7583.651533618,14407.5476596957,14482.8879904838,15553.5944693285
,87,14014.1385103708,13545.3631671351,13849.3259947639,11909.5552791233,12628.3685865474,12463.1844188389,12023.274888395,11357.9073746096,9349.3166013503,12743.9877514491,12620.8578489493,13669.253713379,14420.0773056738,14453.3965053006,14322.8998895456,8975.81843546642,11801.418186592,12451.3030617918,12629.7164132275,12828.4473561228,13084.322668462,12283.3896909128,12353.8333227524,12755.5214155557,14287.6842076856,14845.9078374616,14206.300464236,11783.2829565808,12452.6472559781,12284.0727140103,11794.6012333261,11679.752320748,11949.8962518133,12550.6832399707,12977.7312813823,13153.9462716181,14058.8664698979,13818.0646374692,13809.4636064722,11678.8318268012,11725.3820216867,11828.4970268236,13464.8540442504,12383.3278226104,12889.6757610182,13359.6743853458,13637.2179550796,13661.9830387034,13123.3831494469,13793.004425431,13843.1644604653,14539.3937146743,13848.3175840504,14589.6557356652,13585.7374847189,13172.8457296597,13592.1346204745,13243.5458037306,12823.1538474189,13505.2128029846,12514.4462292742,12775.4897370472,12824.5168759819,13743.4293017839,14181.9835016587,14327.0617555182,13699.7124200891,13491.7409256076,13693.5220424547,13139.5708293859,12912.3354702688,12681.6142981491,11998.7879283831,11984.5326742861,12206.2346768064,13212.8820560602,13073.7046536524,14152.4557708345,11957.2247296674,11526.1652362871,11758.7310528646,13797.2629308395,14004.427309414,14248.473351019,12158.1523589191,12021.1167234819,11949.5132169181,11591.1759860865,11309.2037265593,12637.6872168485,6127.10536532491,7262.45307590384,6968.33682429069,14136.570321657,14201.7979866381,15257.8322807623
,87.5,13802.5622458891,13250.6935809451,13557.6915221514,11384.6676185525,12163.7247609655,11999.1360413817,11553.1099209462,10984.8430539716,8644.11506914821,12418.2115936048,12284.673715305,13318.7151625459,14097.8146518128,14124.7663826316,14010.2006550987,8334.99464832512,11320.6593205748,11987.8922536604,12189.3440744085,12443.1483256098,12691.5871953179,11846.1911033128,11918.9179537442,12337.060892084,13955.1370045535,14489.8670337267,13886.7555985024,11277.5876174452,11969.3936341239,11811.445973333,11156.1410111824,10956.7320461558,11313.1131402454,12065.1974879308,12528.4408044859,12736.7375815117,13715.7347775266,13479.3737226251,13474.2081622744,11180.3982102536,11233.2112236016,11313.3194164122,13075.978623014,11930.3007249305,12511.2704031651,12916.6121701276,13203.6569074678,13251.3774666716,12777.3456678781,13425.6804530936,13494.0417152888,14203.4598183747,13554.4481154959,14278.2000547344,13155.7291509226,12716.1320417339,13163.8179890313,12739.3212930513,12345.7496086157,13034.5551495716,12148.1553267089,12414.8761485472,12442.6553917668,13407.4505135539,13840.3047563618,13975.4457062821,13274.6649984471,13075.5766276229,13272.157769049,12729.4764861505,12484.3606743914,12305.6121721322,11641.5337028927,11609.7561689706,11830.874253934,12842.8912561348,12699.0757633177,13758.9894399226,11296.8648619228,10888.9679806293,11129.2772204867,13494.3990758002,13718.9706464677,13942.0535246964,11787.0777470927,11649.8638044902,11581.1268319786,11125.9061551632,10853.8903936807,12177.4209645073,5763.91994753811,6685.06471939697,6428.26146263123,13853.9865482861,13911.9982598647,14950.0326332917
,88,13548.857004755,12920.5202047215,13226.9515709358,10788.2411224327,11608.9086916318,11443.4869350248,10999.922754564,10527.20611999,7935.4241202314,12076.9877724583,11931.5389481806,12930.3120820013,13729.4633241574,13750.885780188,13656.8697445046,7723.67102104498,10769.5644319812,11432.5957641364,11684.4130362677,11977.8160711924,12216.844047849,11359.6956313139,11435.949270417,11873.3869730142,13574.1660205486,14083.5990785607,13521.9132243633,10694.6553087155,11385.3585161708,11231.4873279918,10479.0580261411,10203.4310112264,10641.0246587531,11495.9595819218,11992.9710405881,12242.5713888993,13323.3416479029,13090.1215590279,13087.5223585764,10673.7632005812,10732.7263944494,10786.7573525243,12591.9308070675,11410.3213557699,12033.7432045139,12347.086416968,12651.6480888679,12732.9022174164,12378.1015530557,13000.2474081958,13088.960800729,13783.6602322314,13191.6017941166,13894.482673921,12615.6934737621,12151.9349366309,12616.5794305698,12052.5732718255,11696.1521441312,12390.4182511656,11723.447332968,11995.1808805673,11997.657851565,12969.3396104766,13401.2325274973,13517.6658752838,12749.9439988723,12558.7328999881,12743.4363150254,12303.9079835207,12038.652283489,11913.0125046481,11227.954951829,11173.3082424015,11394.109173002,12387.989127625,12237.2602316868,13276.7490287827,10631.0171900588,10250.4397822125,10493.5277894328,13175.3916963734,13415.9195542189,13617.8003970882,11357.6150403656,11218.713254019,11156.7617543785,10588.818751624,10332.8939537143,11625.7176860928,5460.99368098563,6182.01476056457,5970.97275291922,13555.2758971414,13607.5814441753,14626.9019030133
,88.5,13215.4895965928,12536.0957823633,12841.4699264416,10084.3731800663,10926.1164542605,10759.3139665574,10315.4345323514,9940.8366685199,7239.96914818947,11707.6785497322,11553.4462321793,12503.794321656,13295.7353934327,13307.0563245807,13237.301966964,7130.49647404498,10092.842215348,10728.9572676902,11044.8932843678,11368.3104066335,11592.6597723824,10754.0590255523,10835.0084302735,11295.0763548086,13121.6331047525,13600.4198993088,13083.1691452805,9978.30049172846,10639.7329404093,10489.7451315026,9804.14433229174,9481.19356290062,9971.56064991758,10768.7229385379,11289.3118858414,11586.3047907036,12856.8484144892,12624.8201584712,12619.6668180969,10160.1199065973,10225.2574590963,10252.7881782777,11932.2831505138,10741.1479103288,11385.8498365825,11595.437363841,11922.2918509356,12045.0609188407,11901.9959149533,12487.3842096682,12597.6219625876,13217.0465197776,12707.6441332606,13384.2129354389,11903.3521406342,11416.6299464798,11893.2184312468,11155.5626919382,10845.2229353139,11534.8544434675,11217.0677849903,11489.9898610592,11466.3061628037,12347.0182922645,12770.8170284349,12867.4816724549,12034.5125895171,11855.3651902945,12022.3122792164,11858.4554190326,11574.8219397773,11499.6935183157,10741.4245902763,10658.2539086022,10876.7732348479,11814.8162602291,11651.8606094411,12670.4136581553,9979.19844323621,9631.24689967221,9868.77451693368,12826.3874164453,13079.4747250777,13262.4966521939,10854.2684836766,10712.3587747096,10660.3985388103,9938.22025122589,9705.92931045735,10939.6162446109,5221.0941893664,5768.5679535398,5606.2624010634,13221.4688642594,13272.1850726184,14272.3611263547
,89,12757.5021345204,12048.8952989672,12352.0958103104,9274.5051538511,10111.4324573141,9942.96349802242,9496.57930501145,9222.89183354554,6574.83479492462,11274.6861859983,11115.8684397715,12024.6744001173,12740.8605505815,12733.4866584917,12689.641749396,6556.41621419768,9286.69161902645,9874.02854702594,10258.7525685717,10602.5717542504,10805.3918007181,10008.0932926356,10096.8895948361,10572.3241601139,12548.3323183523,12981.2553121036,12509.4265834621,9139.23310067548,9742.14469391436,9592.87710517116,9145.01250626808,8809.04929434877,9309.4609583516,9887.44012185715,10414.5533260014,10754.2440371534,12263.9927990616,12028.9416019871,12013.1168164464,9632.81861510084,9702.79488581646,9704.36853848587,11086.9978527218,9921.15599214079,10560.8113163601,10657.3874193424,11003.4671594762,11169.0652894876,11302.6027211175,11832.8636591152,11964.3622270636,12473.8702624256,12069.5139729651,12710.6073474363,11015.3467150167,10511.2289159074,10990.0639984137,10059.9610094579,9803.31598947505,10469.6619196848,10590.6230007398,10852.3359143247,10804.3080711419,11528.6007617292,11935.7794724942,12011.834697143,11113.5811422344,10948.8973132733,11090.4148446213,11372.4687259584,11079.4574448688,11051.3646733627,10148.2984021587,10031.4004155827,10240.6349793105,11065.613955096,10896.2281586816,11877.5278616113,9337.52564036503,9027.13862007462,9246.74971497356,12404.8370146915,12668.0864065099,12838.8597679708,10246.1596644775,10096.8004549008,10055.5782782732,9178.53478102052,8979.86965160808,10117.7014303924,5034.71149194896,5429.23692130396,5315.09683350168,12784.4051715862,12845.0777989138,13827.9097155354
,89.5,12043.8840332606,11340.1503307941,11632.0889830011,8383.74785987876,9185.58197009948,9016.32801223033,8572.22262232669,8396.7223753013,5962.14551850592,10709.6043229967,10552.669901388,11428.3016843201,11939.8802683476,11911.1485076222,11892.3718576478,6006.75675909848,8373.31532246629,8893.96401289294,9330.86694491705,9684.57736313297,9858.8742163786,9136.92264266179,9230.74349465378,9701.37749592464,11738.9750917898,12111.7819306528,11689.1198612659,8197.59758414626,8714.65746913068,8564.61637961492,8496.23423397771,8180.2968751874,8650.99477891903,8874.97536660496,9382.41370965657,9751.51088338932,11443.6902363943,11207.5989944234,11176.5509020098,9081.2654453517,9152.35710483934,9131.74686159096,10059.6938364821,8963.43449502493,9566.09520264839,9571.09433038723,9922.82539214847,10119.3522116383,10503.1904221084,10959.9023211119,11104.4806250706,11521.3794338388,11236.6382012521,11829.3429248539,9977.35274672734,9468.57235336286,9935.72750089125,8817.06523625008,8616.45150107048,9233.40388686686,9791.68908087974,10025.8551464578,9963.68820388613,10512.9464974746,10894.4736261566,10947.2839880286,9999.46190926471,9850.1398472327,9960.83494359022,10779.4526775214,10499.9587836609,10518.6634265108,9400.47464615341,9255.17277370896,9445.66274235445,10152.9135601488,9978.62998263111,10907.3764440136,8692.1627054402,8424.88817097056,8614.9891068632,11832.4500771396,12096.1217974663,12264.1019403498,9486.19910669803,9330.13287492035,9296.93770362676,8329.18802302826,8175.43643113064,9179.2782807948,4881.55192436098,5143.6896685037,5072.69471688006,12118.7335727281,12196.2521665602,13149.5564546007
,90,11071.3627874991,10408.7941662292,10680.762889939,7493.20759489048,8230.88223850888,8063.27709582313,7625.91453580559,7522.68279712905,5441.55907756857,9970.46189534491,9828.19439840058,10663.3422553749,10902.6535323061,10854.2338341338,10854.2574993903,5524.10115936496,7424.86479392704,7858.16066890702,8310.29903154855,8659.10157535044,8800.54336412593,8169.63578516188,8266.63998186477,8710.14407263458,10706.126946606,11011.2540838861,10635.2855563508,7221.61662764002,7637.49995184889,7489.72576995754,7868.39083432709,7600.34413684403,8009.18721369928,7786.44647605752,8248.41720619094,8624.59047946117,10412.8714809285,10183.5557857754,10134.8078066359,8504.42131604401,8571.15423384158,8534.7232532994,8901.00840531149,7915.74991954326,8452.12165520221,8417.39727620194,8758.83842219939,8975.41642000753,9530.57171611122,9900.5906052601,10047.9330249913,10379.2487424603,10214.873810277,10742.5372869229,8859.7793249063,8365.48523861242,8798.48579395983,7585.29502452041,7432.4570506347,7959.8338967196,8857.24756235006,9048.02593775685,8985.83201756766,9344.59149939111,9692.71892145194,9720.96412821613,8766.33064813932,8630.88239713052,8708.20648091718,10034.1270525911,9785.75209873662,9841.50110177788,8533.58216485714,8370.12009946575,8533.08872027527,9135.38470609341,8972.01006068237,9816.61424791221,8050.63272927136,7828.28430176981,7979.02991859019,11082.3556696747,11329.6108182295,11492.5594710332,8609.64736217879,8452.86897152974,8422.18128576955,7452.60603219307,7347.43024538151,8194.01439834444,4759.05337088541,4924.18796827912,4885.34350604028,11200.503063774,11292.6815216121,12191.5866053606
,90.5,9867.88530470721,9277.27147336806,9523.164034187,6659.06051820208,7305.9486131146,7143.02581364903,6726.17779109152,6676.22641166928,5031.10403647842,9063.96147854564,8947.75736472003,9731.13555739643,9659.03336402337,9594.00451774036,9604.86124604889,5131.56759570197,6521.59645460889,6872.64983983877,7278.69772413133,7613.12279658181,7720.84123399609,7159.72790690964,7256.94263821465,7645.26241727476,9482.30802227814,9713.94085927879,9383.72283233517,6312.98488707838,6632.92843105067,6497.0902151178,7267.75547804832,7062.29104232283,7390.9476339985,6733.38361493554,7123.04979367624,7469.32985304629,9205.83211620385,8991.71688590992,8925.77576183741,7892.7309933699,7950.79988361364,7906.58132217017,7730.73561299432,6876.6762860999,7346.91592280608,7302.71880716895,7607.06788890882,7816.36895037692,8421.61352185241,8699.67952187588,8836.95967079042,9149.8646695903,9087.76656459898,9535.48620120314,7761.59743880126,7297.96315978687,7688.38893858689,6492.21626783467,6380.21676713797,6796.07311151914,7828.52105137232,7963.26111016117,7915.09898106709,8142.04440908917,8437.79138846651,8455.03553158342,7538.60210911204,7416.68677833839,7465.07736931479,9146.29956948885,8942.90895761536,9020.62097187768,7583.07175643468,7415.83042646596,7542.78549242689,8074.77344573895,7942.085568067,8665.83067739255,7409.10050973215,7230.78981704413,7338.5886672743,10148.8998883929,10361.9602553911,10518.3061435024,7652.48182390584,7501.36387363323,7467.3648030353,6617.31905017012,6565.23659318377,7243.56454824804,4665.17237258833,4769.13424566668,4751.07990587141,10046.5477852733,10151.2421245924,10965.9345571946
,91,8498.65216067137,7999.87367227526,8210.92165753312,5966.32957346012,6501.43808907182,6345.65438977211,5977.78257839015,5953.56851646073,4734.665505218,8024.27798123044,7941.70320545887,8657.93749188626,8272.7658415119,8201.60246734734,8214.54869835266,4850.1441894823,5780.71064469005,6054.6434497217,6394.22699562765,6689.28629994749,6769.44000500067,6256.91105394098,6349.15232926942,6653.45621708208,8134.96720039651,8295.41276654247,8010.91728210612,5602.3848884177,5838.01175234427,5712.18185115931,6697.14559850802,6551.94020783414,6799.6706295556,5878.30399133292,6185.18866954156,6469.13657380712,7895.31914631035,7707.21808202946,7632.06366317937,7252.68038330756,7297.70494770214,7254.9930859644,6720.83238686976,6021.10030134186,6402.36466418155,6352.76251260881,6601.27577183483,6778.98431376204,7248.7604936648,7442.09403774478,7556.90476375586,7972.34529708266,7964.86932763628,8325.0580313226,6819.82071930828,6407.36565446541,6732.78315341186,5624.39126457577,5545.02862821484,5847.84538391254,6777.40691035211,6851.36139021295,6828.29846978379,7082.45788622607,7333.30380299349,7334.3417449208,6508.21409674995,6390.87591506294,6411.34486592695,8141.35529883403,7993.19673917994,8078.71232757021,6609.52782652067,6456.0958204925,6542.72105867295,7048.28530757139,6968.43456164557,7536.5863524226,6768.75753333096,6631.91529462736,6700.35069892733,9052.29886166959,9216.82230470261,9358.33612948681,6673.16424438272,6535.6555595488,6494.25734218298,5918.60242756596,5918.06411357273,6428.41007717264,4592.84890855021,4660.70215961856,4656.33749343297,8708.80589476065,8819.25803007956,9520.78932716734
,91.5,7084.13817964819,6697.17439520456,6867.21305755385,5433.84304669959,5845.78480695429,5698.90163693553,5408.21740526111,5381.12484868016,4543.58576672325,6943.14368544129,6896.78459519,7517.29503483785,6883.95249900747,6824.55627189897,6833.55925103893,4667.84701770009,5221.12378271639,5427.73237907637,5695.78632590011,5929.91218602704,5990.56016730949,5533.76590159784,5614.8319918635,5825.71491202505,6796.90694150087,6906.98984941734,6669.78028248258,5086.19297147766,5255.61334726017,5139.66975814045,6165.61281722334,6072.01971644858,6248.20609913555,5238.2014373189,5464.75170598439,5669.14484962162,6615.65848382891,6471.02594388073,6400.62047537567,6610.35603400256,6642.03607809406,6608.61080759112,5904.89330465919,5368.11750852103,5647.16948605794,5609.04154472994,5794.91093101044,5928.95132190192,6137.57445985864,6270.11720022709,6356.76303373252,6922.41857911029,6927.10465906481,7199.48161315718,6066.12644796571,5716.95114149338,5966.37293663737,5009.198861233,4953.20346441825,5155.22347052939,5819.42611673321,5841.96981035286,5852.59026735477,6213.99405970142,6428.36706118712,6411.83103522637,5721.24926712857,5603.80307850767,5603.25967218244,7078.04991379532,6986.91216860188,7062.61255552085,5715.16591414142,5596.12041757805,5648.50730425334,6187.50080332199,6159.72024939567,6572.76640469245,6166.08479217415,6064.42406741868,6103.59975386333,7884.61129964531,7989.74102655559,8101.77753078312,5771.19078133579,5660.44759827016,5611.96127456112,5366.95107951147,5412.6836699301,5769.55450185389,4535.02413404181,4586.66295244973,4589.2455808733,7333.1861779157,7429.25184529702,7986.56411585377
,92,5928.48456962418,5647.33121514056,5783.87480337765,5054.2924253831,5348.05247649004,5210.88943745642,5009.53660641947,4959.64706829316,4433.66624450858,5975.79852747501,5961.44034000233,6464.93517070618,5784.02533421068,5744.15701746,5743.70591831401,4560.68053174764,4837.81734877417,4991.4680966462,5196.616075886,5356.22524692213,5407.16582409643,5010.37493435914,5079.7200606501,5211.57482809529,5741.77468611579,5825.65497657346,5624.22937271637,4751.42314105025,4876.66434755076,4771.35752097202,5695.49972613709,5641.82211099103,5759.62722182054,4807.96939665513,4967.69600280162,5090.41081368939,5614.55042083012,5517.17290321531,5457.92450006951,6004.90608482838,6025.5085556962,6006.25915286242,5303.20420812561,4914.43584603014,5097.45807779595,5080.40985291596,5209.47576605175,5301.44895519365,5285.50463103112,5384.38082797917,5446.09712763655,6090.11694661274,6072.97417612372,6268.26991708495,5504.87513371631,5222.12406217419,5394.72378969987,4637.55430582829,4595.19412359219,4717.52472084458,5104.89144981939,5093.43232322374,5132.63799798114,5567.61058868782,5753.67233792731,5722.76019191829,5186.64808162812,5067.89941276811,5053.96837930455,6114.30367606528,6058.22096065029,6096.39362896759,5042.90037444231,4962.66682817383,4991.42009764648,5522.87757160596,5551.02473443741,5811.32603259915,5643.41042843307,5567.60418516519,5590.41046599947,6817.67046952349,6863.67355426937,6929.85255552348,5088.60231749325,5010.84101721195,4957.90059515784,4959.98923913542,5042.42556869817,5273.00666410226,4487.02161426134,4537.07087304575,4542.74614778867,6181.14115909487,6250.91536691481,6660.30934047267
,92.5,5089.00909548904,4890.28218126628,5002.78498932656,4790.47418450146,4981.60813427889,4854.26316007068,4741.32986334446,4665.31331791858,4371.35531280871,5231.45264934375,5238.73877594545,5629.98367934193,4999.90942816201,4979.6397306319,4970.23796391381,4491.65993031466,4598.78117660571,4715.91042241077,4874.49301226298,4963.88952917323,5012.8219246809,4673.94903716475,4731.57798985226,4802.77445204588,4993.59067384873,5065.32148284513,4890.97670271823,4562.44765355432,4662.0634427966,4566.27206738249,5296.73790176239,5270.10839010035,5344.34028185229,4561.92154718778,4671.74094437964,4720.85519655027,4911.72235916439,4852.11057645303,4806.06808730099,5463.89207341882,5481.48427787917,5476.68389770537,4908.55497845145,4640.49395188224,4745.33862815349,4738.2684214411,4820.15473268542,4874.4365415141,4696.78932203625,4780.62763255805,4821.71111703022,5509.80492463363,5455.30855326065,5594.84744402741,5115.96390777706,4894.01250860675,5002.55621459443,4436.28790468409,4403.7279905114,4476.76274861102,4621.88415934467,4591.61769955164,4650.28768306534,5140.63849944861,5305.57055222997,5266.04294877615,4870.59634924306,4752.06418805857,4730.5883342,5370.90180316649,5337.05291955397,5330.82341446378,4584.44048336919,4538.25068811486,4551.91589170773,5047.81667539952,5117.51209106315,5257.00892388878,5211.24053766154,5152.50573769667,5171.42108795295,5929.87564067519,5935.55966815648,5962.93697593136,4621.75307757858,4572.29089216895,4517.09970681949,4674.72086899772,4785.96895852238,4918.99739782743,4443.43221601068,4496.48971664107,4504.81380269367,5327.17988886953,5373.92316305148,5661.40647598324
,93,4553.31182123324,4413.76895720481,4510.11690881475,4620.53830816769,4735.15334160297,4617.86100891293,4571.23295996889,4469.08515264915,4335.59145564562,4718.71520066199,4737.57360444355,5034.19028876158,4514.62975361398,4512.35487750793,4495.74855419042,4442.88484510482,4461.66127114267,4550.06891057556,4692.06759495021,4721.1718964013,4774.1417306285,4497.83047029079,4544.62362731485,4577.42145520374,4532.67180736169,4605.07922740478,4448.78942806889,4468.54827050191,4551.88326585771,4460.69322673497,4979.87683467224,4970.34709934315,5015.78053780948,4445.90136839846,4526.52640598502,4525.62237261898,4485.61846949043,4454.21615240885,4422.46780590812,5024.91446996108,5043.77066748504,5053.66989512317,4681.48731788182,4503.72318892651,4544.11763400781,4537.39364325718,4589.66514231222,4620.61682260905,4347.92933300683,4431.37353752398,4458.06549793421,5132.6453302023,5037.34028986496,5142.01763926208,4866.5903635108,4696.13788577576,4753.24020666795,4336.47346071288,4309.76322540496,4356.46014106401,4343.9118694678,4308.53432125482,4378.11861561845,4877.64499275026,5034.9362302721,4983.96422615278,4710.61685826184,4593.97729877046,4568.165016783,4852.13686894169,4830.81043719871,4786.28573218532,4316.32621331149,4297.52136966922,4304.13183986317,4740.70931172757,4832.67716045919,4894.38008778485,4877.46556959674,4829.59717906058,4853.68268079482,5260.99032950729,5245.93199575655,5238.43058255801,4346.90310868119,4320.51392059309,4265.52348313046,4489.69065317555,4616.82996213864,4686.37158056619,4402.31292816693,4457.82863409499,4469.63718792906,4766.01751965673,4793.69833781221,4991.5634237901
,93.5,4289.16440851021,4185.01535693382,4274.79875137144,4499.13785838185,4563.11867846338,4455.47642198219,4449.98214615922,4329.55939189069,4313.09075018693,4421.530482955,4442.43754928625,4667.33810824165,4290.50089817469,4300.78337066264,4279.88727653492,4398.19801780858,4367.78847345252,4437.18712438626,4564.79692117976,4552.89202142216,4612.43563172918,4401.82790825807,4441.04912658034,4458.31397077843,4319.51033204993,4400.35474828588,4253.61353791598,4397.5393984647,4471.42427385572,4385.27921622838,4743.77677520555,4742.75028188368,4771.55881501525,4373.18935427146,4438.26243914605,4408.71113668864,4293.51848974905,4279.56511525629,4259.57655086945,4707.63412634493,4732.48762098896,4752.68604478571,4532.71914021913,4412.18818755945,4414.60631399177,4414.36993183555,4451.2505421682,4472.03875612706,4195.87750994449,4286.61375668116,4305.55874695424,4886.02238638099,4762.86234163851,4849.220265439,4689.10486620867,4556.63417833226,4583.17360363934,4286.65476022692,4262.75343152577,4296.20879786079,4227.94102158675,4197.15499383714,4269.66662617814,4688.19046514725,4836.90935652812,4782.77355940004,4606.21058425421,4497.05645568879,4472.61979967569,4544.27677736991,4526.81166977565,4451.66158685513,4200.97763021071,4200.75258498672,4206.7369020651,4560.41054066061,4654.14590707144,4679.17808253436,4651.90453311726,4609.52323338678,4642.41885550529,4827.25737296571,4809.78173675741,4779.84962295502,4227.77990484671,4217.49508735575,4164.44951064479,4354.88588339951,4489.18599121761,4522.39022302593,4363.1283451338,4420.47329229908,4435.4705994456,4469.70253321058,4483.44989390139,4623.02769495096
,94,4229.41663538514,4138.41316954213,4228.22192908913,4411.44482072612,4445.19316474185,4346.47212403198,4358.62464888302,4228.55113618402,4296.76057623866,4289.03266351058,4304.96817715474,4485.93575019216,4249.83831484048,4264.32937466766,4240.55070146931,4356.2541786165,4301.32030315646,4358.45587208069,4471.21897411697,4435.58255061157,4502.92956322874,4342.87011985294,4376.62784510919,4392.59836660148,4278.56465500597,4367.9332099013,4222.00647407149,4342.57257368364,4410.91865579362,4329.92964262203,4577.34358419343,4578.62699277579,4602.86080334404,4327.08495484924,4383.48875503618,4341.26825174741,4260.66383924799,4249.41219990123,4235.56398291376,4497.36491661207,4528.73628683179,4556.74128747208,4441.18132750898,4350.23653066469,4336.75957312923,4339.95089592868,4370.42196339965,4389.54581140985,4169.42026043205,4266.65522064852,4281.59612716675,4732.70261257882,4593.92253825601,4674.46342090898,4563.76035940048,4458.40843194448,4469.91250618995,4261.87167652023,4239.07494627264,4264.73570634582,4206.82622686384,4182.76166751944,4253.07476786922,4548.42120798291,4687.28985795379,4635.72738350979,4530.52087666793,4431.17433753206,4408.99345799637,4412.48766664131,4392.68234765962,4296.95068915392,4178.05586112761,4186.22497002909,4192.12783314157,4439.00076990174,4528.31563646528,4537.81898676482,4509.16631054824,4469.75334747016,4510.50473681831,4588.2264981609,4579.16883590656,4539.51097596962,4204.72924403779,4202.4963465043,4149.9935328754,4260.56024473769,4394.53467305169,4411.56081217524,4326.95702189961,4384.67356844454,4402.83346352626,4363.40717986208,4373.91114390467,4488.8822917902
,94.5,4211.63158222522,4123.71644662593,4214.64411673711,4340.80245963038,4357.62099255889,4268.04217945616,4278.20208970563,4143.71230872933,4282.54080847936,4230.44963290788,4238.75643712837,4396.34213536593,4235.78140151211,4250.21150608134,4226.17637342472,4314.99497293934,4244.84430401791,4292.31645865983,4389.11571834841,4343.75648230347,4419.03206528834,4292.74634102817,4321.63003984711,4338.52186733994,4262.88547356543,4356.40044358962,4210.68565095671,4296.42083568374,4360.57882581683,4284.45974860757,4446.53107133646,4448.00768557455,4473.40723967933,4294.95451521469,4346.22081682821,4299.83041147626,4251.23318002211,4235.77130830741,4226.37232947521,4341.56116219869,4380.38180017934,4415.24911909123,4382.45240616731,4305.37752198199,4289.39935549779,4286.76580682061,4314.04479946369,4333.85982043502,4159.00465404103,4259.16265534687,4270.01232139421,4614.23932097325,4467.87287027342,4549.39138130249,4466.07676937595,4381.77273269043,4388.40752392842,4246.11357112412,4224.81197412072,4245.58966054337,4194.15035824756,4175.94086966556,4242.67605167162,4427.74334908346,4556.53815526931,4509.34468416351,4463.37185228087,4375.84712352409,4356.72502844434,4362.64239320878,4346.74783705575,4246.53327281611,4165.3018827945,4178.03025764649,4182.77625983807,4343.76387517813,4418.19403573684,4433.15572826155,4401.54602843104,4364.34477434903,4412.99314125698,4421.46182226731,4431.70420385151,4393.49676340086,4195.3896970972,4195.11994068001,4142.30308121384,4189.84618528757,4319.1690467959,4332.83036092104,4291.7328260318,4349.40842284267,4370.60647143646,4306.57783328333,4321.87675556648,4430.23407468184
,95,4199.91022438737,4115.90869283372,4205.62271323457,4295.61966577417,4302.44509290718,4220.33782441532,4229.82494487981,4096.89317641513,4274.104108283,4200.99304021265,4199.47064029256,4347.88598855687,4227.0591657046,4242.25307323491,4216.34493477547,4277.19936736778,4208.06430463929,4252.20590402747,4328.01976333327,4275.8834610998,4359.93842951249,4259.97530663319,4282.87859349285,4302.2830407918,4248.13606324786,4349.87788397735,4204.76756754397,4259.89684908193,4321.07515742361,4248.44873171565,4381.60126858387,4376.47498701045,4413.62423877505,4275.15599385677,4322.34651564425,4278.87840825625,4245.60283100073,4224.71189412376,4220.10271773121,4287.30802839212,4328.33689162135,4367.62785330543,4352.35742638781,4278.76114003938,4266.00150278793,4257.1106268334,4284.9506000608,4309.24644106912,4150.31455245528,4254.43940682721,4261.85184056609,4515.65209387339,4366.61416708558,4448.06069455448,4406.38031036363,4335.67969405586,4343.61791478647,4235.04498279264,4214.77726689204,4229.95526566646,4182.67850385316,4168.55608252946,4236.90555265443,4331.35682243528,4448.01350417453,4407.79045979249,4410.57007578491,4333.14307492908,4315.21780695262,4342.19594030047,4328.7680088801,4230.68312384008,4152.84025086604,4171.8183955469,4174.55200649867,4270.00115406932,4332.14127487802,4355.43422551067,4361.27199145149,4326.99033714675,4375.00348749102,4365.82661739188,4385.01187174414,4353.84318737841,4187.05685321636,4190.54606266137,4134.97301564056,4148.09831486461,4268.80211478625,4286.01380759894,4260.48603086594,4316.23872733997,4340.66089051159,4267.90369214174,4284.41558019218,4392.8990509216
