,Cycle,A1,A2,A3,A4,A5,A6,A7,A8,A9,A10,A11,A12,B1,B2,B3,B4,B5,B6,B7,B8,B9,B10,B11,B12,C1,C2,C3,C4,C5,C6,C7,C8,C9,C10,C11,C12,D1,D2,D3,D4,D5,D6,D7,D8,D9,D10,D11,D12,E1,E2,E3,E4,E5,E6,E7,E8,E9,E10,E11,E12,F1,F2,F3,F4,F5,F6,F7,F8,F9,F10,F11,F12,G1,G2,G3,G4,G5,G6,G7,G8,G9,G10,G11,G12,H1,H2,H3,H4,H5,H6,H7,H8,H9,H10,H11,H12
,1,31.9581462074975,52.271963289958,80.368655982631,-51.6039008371308,-78.0373864667226,-64.502228669031,42.1228908697685,44.3109679476984,-68.6710213578199,-48.2767272246656,-57.7405047025868,-110.068154405569,31.4702118956029,65.1624758682347,69.4179484072656,11.2364974659777,6.66393074177722,1.23078404455009,-19.0718788541135,-29.176059073191,-6.68729654023718,13.8928195556209,32.3860590960949,-61.2236735831148,23.6854275843243,65.6649648701432,61.1240796027587,15.6496021559396,22.2113902336823,38.5995364580285,4.08794807611957,-28.3659912331841,3.65028112125492,11.1012851254018,16.6427755484838,-49.6677514831854,-11.1127896650423,51.0213664134271,54.304968103218,18.3414711644937,33.0332620406198,28.5040796780986,9.58913356314224,0.7380204809715,26.2445725435664,28.0945478796675,15.932227674959,-37.9347561025397,1.35125628554852,38.2436930799731,40.2331436684781,23.3876345568488,-0.717215510665483,29.8222899364855,-62.5556758992207,-38.7745142135154,-12.2243202018053,19.5749696126813,9.12937708100526,-25.3397134677425,3.21684129054938,19.3939685531295,33.4461305340628,47.8119751728127,69.6348324540468,19.6146419605648,28.4167904015812,-61.4224836502326,-32.2421729646558,13.5875842816777,16.9238463018228,-22.9528960059688,-18.2767137813198,21.3683414129819,23.3256643390832,39.2671702398002,79.3369860777602,61.6014918850869,28.390859018783,20.3261900821935,39.758339592323,34.2408871545103,26.0926536868601,-28.1404150459221,-74.2064796890309,-17.2865165708072,5.36346246946869,4.21133243187796,13.4936441904592,16.6713185307863,47.0314122142663,40.5022124397028,21.1733580600167,-7.97426601237385,-0.810266989702541,-83.9957903765417
,2,82.5595280500993,96.5816295999357,122.73753879315,-2.4131394732749,-15.2886986719404,-13.2542153054537,15.8450907617962,3.11566695410056,-9.87677637615798,-7.18297409991192,-7.64673183255582,-38.6794719232566,37.3483986868368,45.4401814572675,57.7249911448789,9.1335738029793,-9.01399806425616,1.96188189253826,0.53673043172148,-1.96470893861715,0.518434273174535,1.64106325676767,25.9534979842047,-20.8042243205527,37.0149978763602,44.5811806969195,50.7826451308874,23.5243390237811,32.9659121348477,44.5249210438533,1.94107595509558,-20.884508474036,10.4267265377821,0.597636697240887,16.6831319399462,-27.788520782261,41.170074236109,37.950951857566,34.562063848557,32.7776788588808,50.1729200647169,10.8603027079607,19.9349554060091,17.9818596768027,32.2498948700249,12.7803810509022,13.1824188134869,10.2237188378194,30.0446218632451,23.4147220094992,33.9337894968739,19.5276228845132,8.39247206983055,24.99771239028,-50.4148424730338,-43.0986416101659,-13.2343287202621,16.014787428915,7.64364850329821,-2.22432156482864,17.3517624844108,21.6270819036308,32.5551289306641,36.0966927617119,37.9546202114743,28.2277227824898,50.5345313102334,53.4228622559313,-19.8679813525159,11.8569916400866,11.8449794004737,-1.0167909659167,15.0945898558439,17.0998137434026,21.9022114424388,39.5343125876825,61.4496011838237,44.9173441353942,28.5649815293937,20.7438143329291,33.2345734280862,22.0423470322094,16.4531823956231,4.94698313500612,-23.721899425771,11.1745257114117,17.8896951353745,34.7387631768497,35.0834092968908,30.9686969796048,55.6249983693715,51.7975673346336,27.5779829278044,18.878640790278,8.11244655096925,-16.4286837909713
,3,111.419601203263,112.945738873084,141.040877549565,-4.35723993669853,1.03624555061651,5.04617385424081,26.7763089923428,-4.40042529355651,-7.5943226629106,-1.17358476477875,-11.3845755534094,-14.2657991641063,22.280784712274,30.0006413826595,38.12012488445,1.86034200941504,3.16780434208522,-1.38915974283464,-8.65856183877713,6.84729996281931,6.50202726654788,11.4512015778591,16.9028054476239,-8.3679709486305,28.9916462349529,29.9919218982577,38.5431061685622,9.95247818897406,14.8282729592238,19.65033387517,6.8071456158832,-3.8300255205404,14.5827596953504,-2.1761911428157,3.3184822045796,-2.12978828298765,35.9173991252073,35.6773728871258,30.5298624092229,8.60935590926238,20.3058300287548,9.38193187060097,6.69681197274986,14.4364932384415,3.92640698319974,3.69741819510728,11.9658242846599,5.26873168316615,23.0589689774806,24.9697805520454,24.5358764248977,15.7507831310431,-7.13115512459535,16.2162800012102,-14.3411559928609,-9.74467908806218,4.23507866755244,3.85395358271489,10.7205257607411,-4.12852016458692,17.8434656359223,13.4601670318298,22.4012859404593,33.037795573553,23.3068846538572,17.1464903895621,31.6474975185829,-4.56006250644896,0.324889320369039,7.47187096078142,12.6675343338975,-3.14401615532734,7.0575999592138,14.3292195193762,12.9707011182236,28.416103953261,33.4080537466889,27.9058629440897,19.2395769130053,15.5603606280411,29.7460245418806,9.01398055528534,7.71929440787062,9.14500348104684,-9.71720086894675,8.73723963785415,17.9250914312461,24.6400815669822,26.5108679101158,32.6797156518269,23.6398692675002,35.6803181968917,24.2947215997319,7.61308462970555,8.3538576852161,0.432658813047965
,4,129.896034221944,140.776371350653,169.904721258498,12.2366147360344,4.18618757884178,9.84261668228373,23.8305449290337,5.54254774641868,11.4059610594049,-2.29930411355963,9.41856046594785,-6.00246467776105,23.7754440936205,19.6452275813135,25.0137766011403,-9.49276104102955,9.88829910653931,8.0206742155724,4.68721957559228,2.70491034644601,15.4471121998176,4.33266458601338,18.7582921844796,-7.21836700160748,25.5005234802538,26.5250705274993,32.8936013702623,16.495612999207,11.8395458161422,15.1587210218931,7.45970822311756,10.2233041712607,18.4337745107359,-2.76640624532138,6.46510872264207,-6.93394459359843,33.2335926964161,23.8642787634435,30.0770827011584,14.3195845027558,6.55337325673554,11.4037111618609,16.5264662948557,14.8086736307896,10.6114593551292,6.29582924804254,3.05366212261379,9.1419470592873,19.7854402366247,18.4307451673139,22.8339850016864,20.0059223293802,4.97132759327997,15.1291662659942,-0.806015946780462,2.08102376433271,5.11485283252841,2.41048704994137,3.66862239763395,9.39855744783199,15.9014432905633,11.0858286701823,24.5248895746354,17.0286117180685,15.8659689788565,16.3963988510841,22.9758667036858,-1.87459727927308,19.2746013350679,-1.18510154153137,3.30653847891244,7.23688662909899,8.6545923566573,8.35495295999044,14.3357147279849,26.5069283098655,27.7433908114126,31.1899264174635,16.084178712038,16.7151417847344,19.24956880026,9.52260642553574,10.7911510146159,-1.88195444909525,2.13968385690987,6.45424773603008,11.4653354554976,17.292849028534,23.5113263955427,22.3557764746083,21.2714343535608,38.5520483833534,17.4626944614456,1.58820468889189,17.7588912636829,1.89921512867932
,5,160.686481263917,165.924085201264,204.602581913819,8.94167323637157,7.29236478770872,15.2327314471768,10.6394062938107,-6.28421929006709,18.1527502805375,-4.70073822424456,0.588632908004001,4.23286403344628,4.02923393447418,10.0999620067651,5.86114274613374,-13.1054993625858,11.5992835195857,18.1181609936193,4.32722926148017,5.85576618587129,5.22393402854868,-0.162509827854592,6.14067431129115,0.764980972386184,20.4987664429564,14.5814537570386,14.1439394213839,12.4836807400634,13.5217800847113,12.6384103180453,6.272883958487,7.3507893391843,20.0380134826528,3.33983008973883,2.35922901353661,1.61487514612963,29.3058339401396,22.8413261141704,18.4830544741262,13.9259498593083,5.55468352315347,15.2651156422826,6.51881875174604,12.4297549372577,11.2203000108011,5.41864721170259,1.76497232443853,9.39299589969414,17.5389618314484,18.1519659517253,22.9814076446619,10.8236942651174,7.73155370270524,20.623367182101,7.9054241255144,5.5927572841174,13.4306447601721,2.0325048022014,2.68852650561803,-0.63883542386975,12.8706958090688,14.6588836198089,21.2870030291224,14.9250647856852,32.6782020401861,20.3561592279211,16.8776095693138,5.29301010310883,5.76342752489654,0.321837378778582,2.60803275306989,4.06432287363623,5.99356819059631,9.93020275692925,7.91407475937831,20.0634655251397,20.0147865672916,17.0587603528365,15.0231925761136,20.2930576754807,22.8068106228648,3.05038833153412,10.4265359672499,3.25962939261808,7.8605282639337,1.61342413625516,7.7731653485298,27.0015685659246,18.5896901189171,22.6819032883459,16.8962439689267,22.6699357719608,14.8447231352529,5.92106677328138,4.8130020410108,10.5626124724567
,6,195.838127198466,214.776013145899,241.127114988632,16.5626170292235,15.6294537504873,7.48940898014644,11.5198725844575,-2.19903969329062,22.7785766175703,-4.14957264763143,-0.632244197902764,-1.73494824282079,-0.707243546770769,-3.19505665917313,-7.42653302117105,-3.68479629416925,15.6647497514568,2.24735032447643,16.0541529897182,17.0207708935204,13.9504920899599,0.754963687750205,6.83826610323558,4.08493656712744,5.58871404363526,5.83531336973283,10.0080261958483,19.5530965283269,23.1756023577464,11.2365977170493,16.0511485568732,14.1583307188002,11.6812418924828,6.53561923000871,0.274931770250987,10.5214598679277,13.6516623938778,15.0803035270337,11.3077670138282,20.6103933376635,13.3783926255173,17.3893033797722,10.4475647602003,12.9464120474531,14.6493949290316,11.751042200267,5.8981306355563,10.1921929065065,21.9678721471464,13.7747080905774,18.517934549438,15.1578612121857,15.718309414664,13.223373239186,19.166306509589,16.5353569898798,23.1492878421705,7.16524518768347,2.12599131807565,7.81749571783348,15.1335786854588,12.0798175758082,21.3552796632157,20.5767272479297,24.7609790480965,12.8258569898053,7.59625103983308,29.0128517781231,10.0776024802726,4.99428161849028,5.52052812105103,-1.13694268746985,8.73344470689335,10.4965229235586,9.32649510176907,15.4703356203381,17.1397846283926,15.0662855816408,15.4387420275843,19.6821107847936,17.0559449979692,5.83472944500591,7.57617640397984,-3.97155123977154,9.77116993886284,9.00656937148506,6.84455241732121,19.9071429144587,9.99684573358809,10.3723197722165,19.3607328585085,20.0651676072957,13.3470371792037,11.0989425310527,7.44132929663374,5.12695284948677
,7,247.520754365634,253.537949612049,320.955924783245,10.8791207842087,10.5295047580348,18.1698117052674,10.8054490562527,-1.80773188224885,18.3017514397407,5.4396672544317,3.00474056764324,3.33222661887885,-10.8423924364697,-13.6938619273096,-13.761540632805,-10.9779077594394,7.04643044557724,16.3448753669627,13.4818576973412,12.1834569464536,1.80545567668833,-3.93178398516375,-0.50752262826245,4.63065376337727,-0.16428519341207,-9.29652652260938,0.382779344522532,5.33486693559553,4.80020389292713,8.44105656829834,14.1770926126592,15.3239760895385,7.59235081818679,2.88687324768398,9.72652817277503,-1.22583067773394,5.06964629262166,0.497643219924612,5.09199980056928,10.0780059012741,4.3315968540237,9.11715082217961,13.3061862566346,14.3649291917973,10.9228319097301,8.37998435548798,-0.566676270239441,6.79072767755133,7.51608125008897,7.67668168360706,7.10706614431729,10.6133417080746,8.40561064102985,7.39816301264364,12.6376972981998,13.4494542505636,11.4037177396403,3.81507975863315,-3.64121425809026,-0.440749504075939,7.97968988037337,8.653422954696,10.6749132401155,11.3598373525301,11.3080350222772,6.36345312298545,-4.07856118814743,21.569000487636,25.4418687811194,5.47905580371935,3.1867787685278,9.20642415262682,4.49611513254058,5.3313884583431,6.45267437258644,8.15217973412473,4.37640724844823,2.38607754930399,12.8803636488492,13.0612427695469,12.408090984879,5.26556954057651,3.07592919311082,3.76649866547086,6.93297502944552,6.92845384934571,-1.92887923936723,10.0307001611163,16.9192777475791,6.415686529921,4.03788803522366,14.3756487652563,3.40327171508488,-3.37743131340994,7.14936398101872,8.60466464956335
,8,338.113648144026,331.880036871127,432.027329757281,21.4680402080348,20.4520315151676,11.4898598228665,6.7975820030415,-6.92475899126839,20.1169405120927,-0.418635496428578,-0.57298830234231,6.09391956509717,-14.4670101790716,-14.6062725236561,-14.5753225252156,-19.1598564452352,8.65004183182282,10.5936368470984,16.3208846840389,16.8759655370513,12.2696278577178,5.97503798112211,11.5264952818306,7.66853675093535,-11.426121925314,-14.3842189939369,-2.71770204546283,6.7401555268616,6.00333248806874,9.14966380055466,15.2647228552505,18.9824165667178,8.35079898629465,3.62064641558572,2.9254364620856,7.45911690902904,-1.40051557963034,1.72665442023845,3.49802637618177,14.9031716976069,3.8927582695469,0.703561340037595,1.68231292248402,10.8848628783517,11.6516550387687,5.66966229238642,-1.08652490409349,1.37771146251816,9.71027156599848,9.0983780000106,6.79295163065854,13.6021465000176,16.9865536718944,10.8373293470459,20.840320224077,22.9924644351249,18.6895297016526,4.31708396412432,9.28092296096474,-1.904951313948,5.75054351743711,7.15274408636196,8.72472614806611,4.63248587078306,7.88024904463964,-0.729098426454584,-4.77756709892492,7.14718430913126,1.31456519890708,4.30287856775249,4.68812853904183,7.40758022959108,3.07425896833956,4.42185014775896,9.50844139664423,8.3516601642541,7.86183892931695,6.9775803255543,11.5772073055878,7.75524961777228,13.4663235596508,1.3023277696584,0.965487089561975,3.4473996430479,10.3102448345053,0.148546903153147,3.3585941896763,15.1641603785974,14.8886162559465,10.9099723838526,9.63519267300217,11.1486556746213,10.0704426145821,6.7487044146219,2.74864475114555,9.09556163928937
,9,422.455205610737,433.508521023688,561.521516001707,0.750549163043615,2.78000721987519,1.96262610222584,1.26896693239087,4.80068871676303,4.17928422467776,7.46783990804397,0.909110536526896,2.79076726099265,-7.12791921789176,-10.8989287080612,-18.1965440706545,-22.2383145413714,10.5299654230002,13.0027462549097,14.5712983971962,10.6837564200268,8.46000947500579,-0.637236878004842,-0.820039787364294,3.01642347144298,-19.2403491136629,-19.9296017862625,-17.7428168156221,3.46078250121536,-1.26296400336469,-2.12742622606493,2.90766714669189,9.22629059204701,5.64983002282315,-2.11595581403526,-1.65804103503979,4.03395261033438,-18.9145014411397,-6.93300873324824,-3.85388068950397,5.59665631971438,-0.154281534069924,8.32516264460628,6.92568829191168,1.32863300122062,4.87306945125874,7.24346444078401,0.34725549500854,0.504966858197804,4.11358205647048,0.303999420712898,4.73876137649677,4.99309265375177,8.45282760893861,2.87933296025039,9.61349822488592,6.13668988491372,-2.56362338635518,6.8743722464078,2.44776219581763,4.19744467116925,4.51729609958056,-6.70105307184349,0.0323474058204738,0.517646831677666,-7.64182253557374,0.947784891302035,-2.10195894004755,-3.0684796697351,-14.3520430563658,-5.91603879011836,3.40114233647819,2.19115502212935,-2.98347798473969,-0.421833002933454,2.40554812059236,0.345393260535275,-11.9967925348828,-6.18535675484509,7.80530081433608,4.62831226049821,-0.614585509724748,6.55154670957018,-0.868950363690601,3.967622949418,6.91201175948208,1.06272548447669,0.536649416187174,-0.654304322231837,0.736053502373579,1.76429635017212,-1.92956523733847,0.387804866241822,4.9953535913628,-5.39250928041565,3.00123473273379,-1.06811886844025
,10,547.796277616778,567.735023769462,768.594331672048,7.88866836634043,7.87905492808568,-1.40875815305299,7.12643897529142,34.0514725835574,-0.908002347869115,3.33346974379128,-4.53417201680895,-0.682888336466021,7.66003535592517,5.38628063891883,9.10691751439026,43.1829740474686,-6.71762124026645,-3.79790691427479,-1.71130434667066,1.36989410901515,8.38668050449269,-6.76779265680671,2.6396463965666,0.752775808480692,-29.9463086244132,-27.9734156441564,-29.0103568561672,0.697850633801863,-2.20614645400474,-6.56575549646641,-6.35159806439879,4.17571115316514,-0.152762385775532,-0.154626455415382,2.23795242739652,-1.43749557088995,-16.488953752546,-17.2903872184179,-16.3718489755574,-1.50877032744847,-6.70093178891966,-8.57426907171612,4.41200554050283,3.63334425151788,-7.31762708775841,1.78289472957749,1.45885591915976,-0.272077888012063,1.99023745519935,-5.47554841224792,-4.88720397632005,-0.431419796261252,0.428457773644368,-0.890888148112026,9.97080251599982,8.78379713801769,-7.18317160253901,-2.3212801111431,1.56181315351478,-1.33351899672107,-3.04505775304006,-0.759691391770502,-0.706341142058591,-3.51752976050102,0.35129572049118,-7.20142293715617,-10.8879078188529,1.50252033969628,-12.0070852917324,-0.857368291440253,-7.26582826437152,1.85730009612325,9.51802701094584,-1.62191983767298,0.291538062257132,-6.40703866465719,-19.9306538382389,-10.427043730494,-3.14763752318868,-2.20118174048639,0.501324633172771,-0.621971763206602,-6.08350135869841,0.828836498705641,3.34913671509275,-2.12065427605467,-5.13387395283917,-11.8404371364759,-1.69817842136581,-10.0520884815824,-6.57150169794204,2.23252999694887,-0.290954960967611,-4.80447142295179,-3.95848692791697,-1.23069858980853
,11,789.83527640636,800.718300273835,1122.22220216471,5.83417861732323,7.97736171274391,10.7322419213297,0.944914835201416,34.7353750301245,15.7722865320084,10.3666383348664,2.52821730311734,13.7572518984161,43.3858594998319,54.0471009129851,63.8663099839468,47.5221996505088,8.06909873372661,9.80435882293932,12.8902215828475,-1.42787339497136,0.695035635527347,3.1920967492315,-1.44723505647198,4.11134167595446,-25.8194451907284,-18.1678651096363,-30.2303123962729,0.453449448480569,3.3182799537044,-8.36614035987259,-5.8367698518432,0.0939277404713721,-11.2347517832768,7.94771387259334,5.0544041920266,5.02463535323295,-28.4588512522059,-22.23384568454,-13.4575805164332,4.32989945507597,1.30030703936245,1.12748658810324,4.14389180271701,-1.59154854801272,8.16473494520142,-1.81959681354601,0.108006923896937,-0.221065934714716,-13.1730247522974,-4.27185223392826,-2.39299093919271,6.08335772182818,8.23449144453934,-2.44422873876738,18.2287085666503,11.3879912338452,-0.0915955189284432,8.53364145911746,-5.00307305913339,-1.08288909065868,-5.7934790192794,4.10248523437349,-4.86536347400943,-12.893992819686,-12.3556153073259,-9.67555915666253,-6.51774981098424,1.67193991875502,-8.49854225314448,-1.06108322954969,0.524227443142081,2.32377594065929,9.95297039062189,-1.25269108776047,-2.68007789989042,-2.75841170432523,-22.7018971443467,-10.7618711211644,-2.67848833823791,-3.22665756067545,1.871421286849,-3.72228537781302,4.58789564058225,-3.04494472233728,2.37799824636295,4.06988264463234,-3.4661529675459,-5.99601879605234,-11.5675254169728,-10.532606801863,-8.25118033159561,-5.42789789544986,-2.50733163095265,5.00921305312932,1.5874681004334,-3.53917625761824
,12,1068.06012940349,1073.19088006568,1584.20666658227,6.71399396085417,4.55924805319137,-4.97000777493486,-1.05994930327324,18.1575054982068,-9.92578706723361,2.88581240643543,5.53089745163015,6.87220795975281,106.046855924829,121.412944660038,137.419487060272,29.8302991201645,-3.21193606035467,-8.80208238870728,9.55838219570887,4.29508956395148,5.33360350113071,-1.26846840631879,-5.60902902553244,7.94713727482304,-20.3451904347521,-6.94495835175439,-28.6804258504108,-1.93168875640094,-4.62822767877242,-12.7287401721223,-14.3612054189034,-2.48732570247284,-7.16392559856104,9.41544920336037,-3.8070144401263,3.92341048928938,-36.4930832116906,-24.6068972792618,-21.8486231263787,-1.99239866938024,-8.09212545830997,-8.05804095404164,-8.12453078014551,-10.4051714252773,-11.8238614701986,-5.14856888288432,3.82788389252073,-3.34347384920238,-12.7066730061579,-10.0375474649463,-7.53794727059267,-5.94142363343144,2.31550854073703,-4.22864257020956,6.78852630743313,-1.18673164120264,-9.38087159277347,-2.92908066216205,-2.38250086862263,11.7404031181113,-3.25678051570503,-7.50765488369325,-13.5875479775141,-10.49444143455,-18.4048017459827,-4.06936950310319,-27.0205510691376,-19.5901027302025,-36.4237666968002,-2.45459407225917,-2.81569862896504,3.43260360127169,-1.83827744024074,-2.13369422647156,-6.95189806215149,-11.4837982656663,-23.645511199069,-19.6473821786003,2.67248661586837,-0.19673786054318,-8.19593963793432,3.56210636692958,-7.9924045376938,-4.61172595773405,1.10682770547191,0.393554624387434,-3.74548380074611,-16.6237839442438,-17.58239033873,-15.1719381849944,-15.6519776106161,-16.0148993113862,-8.65854781397957,-4.35406242071895,-4.86827253566753,0.502164676719985
,13,1496.06025158252,1513.35745890732,2285.22267361158,-5.94410649116435,-7.26050610424772,-7.07295812111988,-8.62815247699564,19.731635359095,-2.29133837481913,5.51780996196248,6.34974012771636,6.08311190960467,204.259334028778,226.826633408868,249.378648816642,32.877220956414,4.08965534751042,0.369344288319553,2.6236643355187,-5.08523800093553,-2.10322389914109,-1.11983432385841,-8.40816016958524,4.86557225944216,1.40623274525296,17.6246620491202,-17.8675654662529,-4.05964986198069,0.519139748833368,-12.6569060637066,0.922240059207979,-12.4503509860233,-9.18526794238733,-1.62892967984681,-3.53306823585444,-3.34773061719625,-29.2762347254084,-31.3657281743835,-31.0003922420874,-6.91346816597706,-2.06826729756267,-12.368753784599,-5.55324335583191,-13.2178911188194,-6.50360965180244,0.496535367698016,-2.58636287986246,-11.7978207070337,-16.9936529127635,-11.0243451881779,-14.63631249023,-8.18864851018316,-2.53539556712531,-5.25056084650078,-8.72508990666574,-6.96791812119591,-2.96008400964638,-8.04749685685692,-2.59992188270917,5.6276405795461,-7.1221828333355,-5.05869638321201,-10.1399998176275,-9.5533094798011,-19.4553959515761,-20.4927174333579,-22.1840993465212,-4.47024044620412,-25.2236658851816,-7.10121313712898,-0.208408375860017,-8.08546618044238,0.752260847665639,-4.98948471279618,-6.66711191545255,-18.165387679438,-18.7373744793094,-14.0488168842157,-6.49481540187389,-7.53791615464161,-13.4545847203226,-6.69319063681633,-4.0851229338823,-0.78294497684692,-2.71089343385211,1.07528215126149,-2.12924601619034,-19.0403876952687,-20.5758870596082,-20.7732160854903,-19.1948124960509,-17.5525950302681,-15.8960122198669,0.369241797930044,-6.46623930726219,-2.59461904361524
,14,2110.24394457298,2136.21244895376,3317.97767457867,-7.83985485764424,-8.25511197619107,-5.06134922357251,-20.8446418248768,3.88777268507511,-17.2697172884109,0.158242055022129,5.7215965600526,-1.27391554760288,345.915594871268,393.182809887265,442.363814758663,19.8262415093886,1.61911391074136,-2.19538066696714,0.282691561704269,-17.9076149710536,-5.10259755126754,7.11614491405999,-8.646104631448,-5.59347994838208,25.6959141278694,67.4810585910645,-5.31678011026452,-8.02943355090338,-3.3320137509927,-15.7812070521222,-14.3378927079993,-10.227726502183,-16.6706574416912,-5.01748665985451,-0.446460714875684,-2.02287122237794,-37.5868444002372,-25.4423182570235,-27.8015950153303,-17.1697520419048,-9.36623873658209,-15.3842289166741,-12.1713926403363,-7.41410240422556,-17.7728852208929,-2.50755853162082,-0.274308269892572,-0.849636568547794,-17.7140837729248,-18.1754169182241,-11.2554246099226,-11.1767652502349,-3.21477651006626,-4.27901818277769,-16.0283362421233,-3.1744157250123,1.46241775179078,4.44398297967655,-8.44333731075585,-6.93520249971425,-11.7811366012629,-12.638296477644,-10.6683399006679,-23.4459303811418,-26.5559217881491,-14.0192195918789,-28.9771671251274,-16.2268004013804,-21.3443595053614,-3.58188789492124,-8.56480153252323,4.80057919044339,-9.4419806238011,-4.69493292801417,-8.9105816960564,-25.4047632455722,-33.0195584839003,-25.0982491157174,-14.2571864408646,-17.1711290885705,-15.3255707253247,-7.34374889004266,-0.674840209066133,-3.8737992639717,-4.54432633211309,-1.15444562842549,-3.73633079958381,-22.9235086021681,-26.4757645587997,-24.0763425648538,-17.5046588374762,-22.6175305997212,-20.6116615244591,-2.13022769168037,-3.15129643116325,-3.23546250968684
,15,2892.03125983696,2924.86380976548,4623.75593722297,-12.5488444961811,-19.0025417967317,-19.5758308440791,-30.4542437102264,-10.5128279272549,-25.7016341030585,-3.86677865939419,6.35814360072891,14.3928834866119,519.47879040406,600.004991061855,674.482073996195,16.3543399624077,-5.12368116850394,-18.0563260964018,-14.0127458941906,-5.69517644400366,-19.0546135323002,-7.9689637840338,-5.18660512411952,4.29913803057116,66.1625465152156,134.198053953894,25.23966155584,-14.8877055231478,-15.4639622201785,-14.7249978516065,-14.341288177704,-24.8630407329993,-25.4645111061573,-11.353380998632,0.601066016311961,-7.49013724589804,-35.112058649428,-26.6810387323276,-28.6564424753851,-12.8121247758545,-18.7351000645849,-15.2325717506201,-20.3594448008043,-25.4700551831393,-14.034088929383,-9.69382867655804,-7.22949104660074,-8.5453231213487,-33.2587158663064,-19.9627369041809,-21.0299841880142,-15.2995014254393,-7.44531849400664,-16.1096592944368,-7.94513912667026,-3.46529356814062,5.39140138888251,0.360865411095801,-7.80210482174334,1.9173638082375,-10.7176091649462,-13.9665747642866,-14.277152062954,-29.2810051204815,-31.6120945753919,-11.1169791584671,-34.8459919872003,-16.3410103602073,-49.3954053347898,-5.21958808689124,-4.58852648955599,1.32160339384609,-4.19261876555174,-6.73466371868562,-4.62925814710525,-32.679239515759,-34.352730926701,-27.9881631856369,-15.7368636369611,-18.5505397304114,-22.3402994205617,-12.8544106823956,0.0270699709708424,-0.165508989666705,-6.6319762537878,-8.7785500127311,-8.42687450671292,-26.699006585206,-21.6724367987836,-32.9206121529969,-24.0265129039426,-23.9021133254346,-25.9608315531505,-6.80266634540021,-4.77620655707506,-7.30225995594446
,16,4233.39519702318,4292.58737771931,6720.02107462254,-3.95438089422441,-16.3882913179586,-9.17074594105998,-12.8352718254037,-1.90105324706292,-22.2994300119026,1.34633962375938,4.42026433266437,3.59017434445104,853.21857250295,992.556068083054,1141.522923564,6.04561980555445,-4.43558460801523,-5.77751343090858,-2.6393502156825,-11.3612594127826,-11.323341799538,0.145393481759129,-10.5026513889052,-5.02147542047351,161.15099489904,286.035779518158,91.8962102028327,-12.5903064445365,-17.0777751463511,-12.1340819390862,-21.301566739161,-18.4642690026321,-25.1424244791397,5.78152178840992,-8.06823422306388,-4.05620000257477,-20.136049224755,-19.3834591629538,-25.9291763430374,-13.0894552244463,-8.58087787200748,-6.97510374387275,-20.5893693405224,-24.802801622599,-13.6336765601718,-0.248068513635189,-0.773145253625444,-4.4449331779324,-27.715447601724,-22.6198200215877,-13.5094594149959,-19.6044309363433,-5.84918506324811,-19.9087742121574,-4.64280674251677,21.777183629385,39.029192702772,-5.83169568495941,-6.21702088499933,0.197405303336382,-10.4688198486783,-5.854260863126,-23.1409033864384,-17.8990290264555,-22.6868918031523,-26.2471994473372,-27.6666465379058,-35.818464814005,-21.2992039058026,-6.07892671980699,-7.22804808987439,-3.34156804989652,-7.46195456154783,-2.90839783691445,-8.13993945175116,-33.2264181277114,-36.8655908200126,-16.2671780607952,-17.6435543207599,-16.8398683435544,-21.101046191925,-8.99598615597188,-4.81353037269764,-1.76690817115013,-10.73638424397,-5.68393032829499,-4.69681738387499,-24.4357611273454,-23.6684193178753,-25.3010792615687,-20.6690304015156,-35.5606643759875,-30.5185865024914,2.99206727161618,-3.76305313481407,-2.55867980186122
,17,5738.69532121836,5808.66570069578,8947.67925099853,-11.2251124499635,-13.9281716985324,-24.8508952537968,-42.1913805376525,-18.8152837728176,-30.0032263129897,5.97659559845124,-5.16114131582344,-16.9772182457864,1249.45320318012,1453.74446116059,1679.61999760964,-9.45876100163514,-18.9131182833262,-18.6818611900608,-17.7149566923745,-26.1878399476527,-24.9419515818036,5.00142368053275,-2.96266009808278,0.539695741577816,267.970862302111,464.063124900717,158.781382782247,-21.9008730590913,-20.9905287476486,-21.8168902116977,-35.0702270947586,-26.1484989512282,-29.624139845062,-6.63178699249056,-2.68207927741332,-8.80604197181947,-0.234183703179042,2.20163919555944,-22.1276481692512,-25.5742859042994,-12.8039165316868,-16.5015555881273,-21.7509647409679,-19.5662084604046,-16.4778702833319,-6.53856915511369,-5.85353121891239,-13.6519311447,-26.4994223637414,-29.2047985738836,-22.4609543968281,-22.5750794957476,-17.4394341072266,-16.3574730116798,-5.09219541062157,42.4162777002202,69.5717603658613,-6.48470767244817,-5.36974747921613,-3.65744784172693,-16.0390229409804,-18.0914120349644,-19.6042484142145,-36.2199827752875,-27.8275549430364,-20.8156908525352,-25.2549678196192,-38.4529413276814,-26.8011087324176,-7.33922747066299,-4.63514581309755,-8.15712221606009,-5.1540549423662,-10.9843886170747,-8.89407902446601,-39.5804430602293,-32.2628724140341,-34.8477894355674,-21.6723269406084,-19.7661218708181,-24.0299984959347,-3.84003072562064,-10.6878922540691,-2.79558539230493,-2.11597544076903,-8.21993176773412,-3.17658833288351,-25.1997283987521,-36.0882884197681,-26.2923304016613,-24.0530021976474,-40.6207955996679,-29.5077873752462,-7.01123108990669,-12.777129295454,-8.1348352402365
,18,7819.1847276758,7921.88290740442,11119.587859616,-18.813483207583,-20.8893086850449,-21.5246172438983,-44.0357949721856,-24.7005299474968,-30.0717528909508,-6.70804893362856,2.01944065655243,6.00235487646569,1912.78970008691,2277.39586920248,2633.35982603902,-1.87694602609554,-14.9079215196334,-24.9425802480828,-20.1825722699386,-24.8125150866435,-31.3442972518551,-5.76120490537869,-1.48069232748367,1.31407016047979,476.190189459731,798.441296247847,297.848540007753,-18.9126427277788,-26.3321867883597,-20.3536013328539,-22.2568688009287,-16.2061091996702,-28.2054394624256,0.385001456339523,-5.74467975107473,3.67439847525293,46.6841380008091,36.2338359639398,2.69070174900389,-21.3611400287782,-9.05074300824981,-19.4687177241976,-15.7690415238612,-23.7844144327128,-13.0645697762457,-9.84997097955056,-0.670389565375444,0.205922689655381,-32.3308235561171,-24.0325048155391,-28.1430858634149,-21.3745791058309,-17.6058216404272,-22.848575192188,12.1110148059706,104.18069890773,160.691818529296,-4.38591072796407,3.86330057106443,-10.4277415406068,-16.4269445746086,-12.7666104603895,-27.5935905728084,-33.9561879066323,-44.6282293434051,-27.2417160818522,-11.7442797075564,-2.079069599371,26.6113413790936,-6.8780487143249,-5.59141272707984,-7.36036696243809,-6.53612813809104,-12.4374272497071,-12.0536822470067,-34.5190009553007,-30.6010982037806,-30.4075524120617,-24.0419447940449,-18.9066423638096,-33.2502377068549,-2.95956053325426,-9.51230327475969,-0.389265387294472,-5.99589844309594,-8.06317729157308,-6.52986113802399,-28.8844654345949,-27.7329356863602,-25.4419105183797,-35.4440653385554,-42.2862891488339,-27.412433593594,-1.07003938185881,-11.1664745314883,-2.22539439186221
,19,9881.39451051455,10036.2711587749,13161.078251926,-28.8237018071268,-23.5616659609195,-25.5729433689221,-47.106000694278,-22.901952190763,-29.9815769430297,-10.7706664885054,-14.590732998322,-11.5642369171101,2709.04050566555,3236.17227041714,3767.32747687123,-17.0008003451831,-19.29458735766,-19.1404167476994,-12.9263480455293,-26.6497812688131,-28.8021258184199,2.67534184428405,-10.993141251226,1.68989400405098,719.899225929847,1207.27611425375,449.056418327098,-23.1246137409471,-30.870465835611,-26.692891561479,-25.4072017672297,-10.3979295031922,-21.0594536046156,-2.13338782420578,-6.13323321217467,-1.92041565571981,106.172180260211,92.6740765549148,40.8334251679644,-23.4381798944269,-27.5026930561498,-30.4186874215311,-21.0528684092096,-28.2849439021156,-19.7020124302871,-9.83119224850088,-11.2442835861521,-10.9062889877041,-25.402542246271,-25.4474868009765,-29.5019320529236,-27.8370237632898,-23.1845686227825,-24.7724690315308,28.0849484793544,188.048887677651,297.364878703193,-13.8487688308232,-6.2027174009354,-2.05265887388941,-18.4424980919539,-13.2930788808435,-23.8964182723612,-30.1754257172852,-46.94549358927,-30.9687374179139,23.6337468575221,7.54216104810439,89.6248726710692,-1.10163235963864,-6.07575552970866,-10.3051506634129,-14.6442529205251,-8.90987405545638,-10.1481945516753,-29.0784218949966,-24.1343002799258,-25.4482006916905,-28.5783842422952,-30.1354756266519,-29.2700332885279,-8.2550334285279,-7.30540781278523,4.48806345167304,-8.65585603015552,-7.05081402678206,-7.5027042979109,-26.7124540709628,-25.6792794811763,-19.5595633735456,-30.3987189926938,-45.2184226619656,-23.9690582841504,-5.94454840455728,-9.5070954292496,-0.246022048251689
,20,11840.0313255915,12041.9691131175,14815.4168008631,-27.4794944798705,-8.38320648030185,-8.48863669356342,-47.3414979166046,-30.2508525218936,-32.8012026583474,-10.0004266752858,-1.05351531473389,-8.89357074256259,4002.28922799607,4749.54278178641,5509.46936372911,-12.4708124971066,-33.3821536449095,-21.0685240942103,-22.1677306990196,-7.2221422565417,-10.4410612179281,-7.43653882104445,-9.72200240856546,-7.73447922965352,1129.66253269387,1920.88350727096,704.934016513787,-26.5412286317633,-29.9944884600809,-15.6409219766665,-9.77367116710593,-2.64137649823169,-0.164886522944471,-4.65580696028519,-8.89049892960429,-4.79593262349408,234.374248105332,188.742185414981,94.5317522169016,-22.4637543520194,-25.5352157319248,-19.7516536304211,-22.7847449017509,-11.9594300842509,-10.0844317618103,-6.67307686211916,-12.8226138118571,-1.9979226386049,-11.454164406734,-21.1487448719981,-30.3176433080353,-26.2273329970558,-19.8417481994084,-29.1146809296142,89.0114721112877,323.999157039754,522.848211302477,-5.99895555412422,-5.37465355037784,-13.7934966356179,-22.3253312651705,-17.6404667910128,-24.0147944809924,-26.0133264822007,-42.547126860165,-15.1951625374195,110.183904864361,82.6508706964778,199.76627728164,-3.86908674572351,-12.5525237162456,-7.69271138684326,-14.8499313702823,-9.74432798961607,-9.79485515146644,-13.7267453012591,-19.290768609002,-21.5169002621378,-27.5768615933648,-27.1039388141098,-33.5469197049224,-10.774358200717,-11.350986380191,-6.29484510616476,-7.56430349238963,-5.9767188183605,-2.61445565136728,-12.1276789689782,-9.90803086572032,14.512672087274,-26.9143491543082,-50.1119363708704,-32.3702089130957,-4.7674448132957,-8.7627997779482,-16.6109079279913
,21,13524.5072974797,13783.8732578683,16085.9849590086,-31.8345289779772,5.18896283406775,2.42161719239084,-34.2822348648997,-7.34040436137639,-15.912594875309,4.50799469420326,-5.22052713503126,-0.567840589743355,5797.36361368286,6827.80826186555,7749.25537456708,-20.4840875451291,-27.0664644385924,-17.8547941204979,-22.5059458617416,4.64915853635921,1.09524141795282,-3.17162931077564,-14.3348428242734,-1.10227328921883,1789.02825276333,3079.35203039135,1111.88045794845,-21.2389641140553,-23.3929277557609,-5.1289236442808,30.6504385271783,31.9893290542896,34.502632661357,-4.63126882994584,-11.9201205913869,-4.40629148077187,423.018521608657,352.396385038098,197.487641199459,-21.7011155368846,-18.9848384565867,-4.46207202272581,-7.05030938474647,-0.602802759374754,5.28216657440589,-8.83287731158998,-1.97163311704026,-2.70428234380506,4.81356124541981,-12.1502020652579,-25.6083540050031,-21.65841648884,-2.35398582454673,-18.668363621724,179.984266525193,580.470636169586,934.619920869576,-1.13007337624913,-4.91235946573306,-7.16620782831797,-23.7003813032788,-16.1601488837578,-25.5652601406209,-21.3953275726508,-45.1446457714337,-13.4683500128913,261.798496701535,195.129515967972,443.631847508119,-4.38162030446074,-1.79182038766248,-7.10649579868914,-17.1270214913502,-11.0792661839823,-12.1751061849982,2.44929712830071,12.8854162366806,3.44415187772665,-22.648081417221,-30.8865743952674,-33.2193123172965,-8.35393179558287,-3.1415078129603,2.02052418331277,-8.83661069944719,-8.13379310702112,-9.54331495966107,8.05209165901397,12.6930737557586,41.3028565039849,-26.0741554792494,-46.2364691609764,-23.5362954428756,-4.47862243326381,-7.80454900673067,-2.276360251607
,22,14866.6939511741,15166.5649497523,17017.3535805345,-31.8446052995478,24.141824691048,19.3005403052539,-28.0405196429774,5.54903855143857,-21.0415941337078,-2.9886775855548,-7.94936315379709,-8.05521961603699,7824.96744783352,9033.92395866198,10019.8281104064,-16.8979440991025,-28.6474142590314,-7.60572906997822,-23.8676549957099,12.4593480075937,21.2784828633548,-6.60202459677657,-9.87713403590169,-4.9654673574787,2563.63579832554,4453.70318916269,1563.12461468779,-21.7801974358235,-29.6743232071858,-11.4921246061522,83.5879667677636,61.0150423680325,96.239900747446,-6.9332516086406,-9.82470005487994,0.942545120027717,664.76049164599,549.682704452232,317.691822459165,-30.7359929082877,-20.6371507778558,-1.5394177238777,0.794432168709136,24.1769668271263,12.0795037887583,-12.9713745132885,-12.6184368463164,-16.5517866884857,42.5934374106964,5.22707486298896,-16.9393224168716,-17.5965998604543,-11.2087912965817,-21.419446879936,296.879033944699,916.283906865558,1466.39619502238,-7.57810502689335,-7.72333540608633,-4.72291578909972,-20.7468668567399,-11.845441532435,-29.2010145514414,7.75129517284677,-41.8854933393814,-3.15621182890845,439.454834017635,376.143596241645,763.884028863824,3.03192956427938,-7.7839100297042,-5.92755260543254,-12.564432932023,-17.7536751500638,-8.47519506006029,44.2984169524998,38.5233738928109,37.0169016018863,-28.6255238188123,-25.3909545552115,-25.8236120439542,-2.1115240631043,-6.79394501364004,-1.69044537955597,-7.82752779079237,-6.86464161760705,-12.7937304362322,47.2141035230752,41.1763926051517,97.1449584855645,-17.2560004139759,-40.3922380526474,-11.6450887919991,-8.73511452482398,-7.63061807689974,-3.83959853360284
,23,15827.0498929773,16165.2282871929,17666.794944512,-7.86083856476125,63.3340205515888,79.8452111236757,91.0965440258115,68.3281283000069,14.4177308187354,-8.29684411179369,2.32504801703726,-6.98156295373701,9907.771992263,11196.4902496593,12123.3061713355,-10.594091976699,-3.00613924969093,8.16715047065645,-10.7920563343432,81.7895303003816,86.0696875779167,0.689584106386974,-18.9258946336395,-5.70224616386986,3944.42831037722,6811.94458605283,2402.24177159297,-10.8273301958543,-11.1389326129056,7.96990343042944,189.269073283309,157.769090483434,209.685675935139,-1.39254376112603,-1.48475400762345,1.13659141730841,1119.20806929068,936.672897379971,549.996176682082,-9.71308217195838,-2.23930221162482,29.7375311022188,24.4685166158179,98.1551022948934,70.8722293227274,-8.58108293940586,-3.95440821310604,-10.3782621165174,102.554025820895,42.054603731136,-4.64590450759079,-8.48202676889923,17.0199136652845,5.31937051143905,537.348824541181,1528.69357652955,2404.07430522647,-2.96244134900917,2.31527385893787,-6.89688300866055,-9.03134884027804,-12.9526665065396,-20.2886062060934,46.7326424614266,-17.7778990336574,37.1996958570735,835.360527604189,731.43510753263,1356.85051547581,1.63582225368737,-1.71883686683213,-4.69324081413379,-12.3385518365494,-15.359660926606,-11.2898530680404,122.099157502195,107.703330118762,111.761993940202,-21.28485024786,-12.5380202975439,-15.1254285698924,-4.29584559831619,-9.68134090458352,-4.27849116209291,-9.11807600943484,-7.77684548403977,-11.1760527169699,97.7324516631652,100.364054076075,206.686673587013,-2.95937893697737,-17.4964274601907,7.85064701773445,-0.653304250546171,-8.70940398084167,-12.8439614115541
,24,16556.7979094887,16892.0047628235,18142.8108952773,2.73307503981414,144.695092796623,146.652228883286,138.093165647022,187.261985487466,33.6757234238994,-1.03159028439222,-6.99133037476804,12.8540134088962,11860.2678241368,13127.7248426219,13909.1638799032,6.81942250670727,-2.14954718351601,26.1488774581176,1.91521815775468,155.350184735823,171.682324747657,-8.5019656901195,-18.0749376835674,0.134055983548933,5700.36695274876,9171.08085289821,3517.68308174678,5.09331841671974,6.06309065459845,36.3906466447761,345.354123728293,299.243694278969,389.360802469235,-7.40244906567114,-8.63306646964611,-0.204982593068053,1789.3665560886,1469.74540022337,849.65415183931,14.9222768975387,-3.06324705361749,73.8310871931189,77.2937350713682,199.309270277961,139.227838481166,-12.4198347175343,-2.15128214078504,-11.5670890123056,218.681488442174,92.9830336192035,14.1800199929539,8.41482362103397,70.6416305597286,38.8840813959696,890.070491834451,2390.69184763085,3686.30598443486,-8.36260584199135,-0.613783209943904,5.09374305750134,8.7596671118863,1.23494501917048,-8.73346350206793,113.530922033739,14.6345192938843,86.5889532051706,1423.61655764091,1265.6658798798,2150.37359828229,-1.60467558931759,-0.377565529011918,-10.4730323477397,-7.10520115419331,-11.1799619302947,-17.4731649470878,249.08415281584,228.574016735851,231.796578215874,8.81044705636668,5.26495752618848,9.15365116331031,-4.24175279810061,-9.17053038184713,-2.43924761024027,-6.10965006021343,-7.21073027622788,-7.01879152509082,205.517676023232,189.158805213035,366.349226032176,39.2267127993582,10.3348129633077,44.0221198786003,0.741989198921146,-6.11930396295975,1.89629622116172
,25,17067.7071699123,17425.1918318353,18493.9627472008,26.6950419985469,244.746006733015,250.758277462382,201.36020900969,320.009973330928,100.717643601904,-11.0046834170698,-2.22103760854588,-7.88054425419523,13482.3457328649,14654.0731832994,15265.0845588419,32.3582425724817,34.4953805435061,67.6655721074621,24.487251555528,256.224332895656,286.208103304736,-18.7758511766497,-19.8938871468563,-10.2256708644463,7806.47250873848,11591.0999806067,4812.11814703632,29.8321186998883,32.6004866833946,62.7839880021584,574.204276689439,493.843227172867,642.829571944492,-5.51512330529386,-3.9096673201484,-3.62892536430718,2594.11654814406,2126.22809618776,1228.28664535301,28.372919179722,24.6279577574896,133.200941957527,146.896479015285,351.590508205429,252.692986630548,-8.4459854361794,-12.0931780016062,-2.49101343522489,345.806318836057,156.147569574247,41.6560082282485,32.3070038248534,125.491908274396,98.9031873171953,1350.52160772078,3415.23002242737,5071.28245881971,-10.9129194586048,-1.95938585221757,-16.1034591739917,27.4971239347642,8.57683404065028,10.5336711653035,208.031480094312,50.0748937551725,158.898732943824,2115.87379445008,1941.58819068445,3036.32600780716,0.18975790283821,-4.65573206496083,-3.28171562011357,-8.91123666156909,-7.1497882061185,-15.6074564645014,434.557221667115,390.405890973672,397.294024706322,37.6486435801799,31.8560814314933,46.6476001918809,-7.78011451793282,-4.8667224778219,-8.23659651574962,-11.5202588298816,-12.225575082377,-14.152063162207,336.872437256051,318.38600157656,596.243415763925,118.391736391868,59.7559389730332,99.6224084887363,0.597377952161878,-8.64627358294456,-13.9662081529705
,26,17421.5711464487,17786.5741428686,18729.0557987585,102.826899989562,486.160849613258,491.555246490409,356.177833492136,659.986403718813,229.907937766,-9.02835053873514,0.626826689359405,-17.2514513814585,14703.1444778272,15767.1107035588,16221.2948011727,100.971610874611,87.0589352518118,146.219788401244,80.6644829986344,504.581561475569,561.762751120012,-0.438306933915555,-12.25681666118,-0.769412226511122,9942.89287375524,13685.5569214402,6882.34042030621,95.1505281865848,106.857178797575,161.466797907079,1076.19610207582,928.401318453815,1194.79702483942,-7.9588579382289,1.50186768920867,-4.48569892871365,4104.17690049957,3368.0023040944,1935.43065725807,100.238086686463,77.3903655472159,276.269753375712,308.563602987098,685.662682665774,492.882937723931,-4.04250780992334,0.999904125965259,-1.39389568515799,646.576967365944,297.342289503666,103.495643727011,101.606409535971,284.980383402452,228.86569850574,2229.77062703921,5075.31501686812,6949.26074469046,-7.41041372740438,-11.8133872167991,5.17155233932681,89.1622531171088,34.0543608813796,55.1118489894916,416.131042907705,150.795241751246,325.756221492319,3336.46974770996,3137.20521032231,4387.35038409804,-2.33052001049964,1.93598251207368,-4.5904881332508,-5.87633818736049,-1.66472863738181,-10.6929628793514,813.516715117595,706.445934156605,747.615220171685,118.425716070389,121.29073273123,133.950261532823,-7.41605023166267,-9.22492525373491,-3.81259924149526,-1.61035983016973,-6.3790782647593,-2.37844394971944,579.198076500616,572.115406379329,1004.41942690697,264.635211213982,184.117727361024,230.522728634927,-6.53518169627932,-9.39542719810015,-6.51483447862302
,27,17712.8908516324,18112.8615710427,18934.3139779438,196.662926093877,782.055259113335,798.901629702243,589.439675042913,1086.43527261072,427.720515336925,-4.47172846072135,-5.49930058924838,-0.340301734851892,15681.1783209097,16648.3169474334,16980.754376103,197.788491231702,173.796805674441,275.536035264342,156.432867041111,805.692131738162,925.191766008919,-5.10747865083249,-19.3815014991515,-8.22180493803262,12105.5290402899,15480.6940442678,9065.80350788629,188.684493042362,209.344888965577,282.876352381637,1695.69765027457,1495.63787101756,1896.07256334233,-1.63069710351101,-5.40244403970883,-6.1590677181257,5790.61606817507,4792.19617590843,2761.55923211153,207.388802510858,221.632296945474,476.045781588342,550.135033214329,1161.94807884362,842.047059057359,-6.85841457044535,-1.82745640360281,-13.3086766150691,985.168619009351,445.737648849756,171.211049627368,212.713627198239,513.269199722085,427.269173109352,3273.50406614163,6742.54439098069,8751.77068276248,-4.54794266371755,-4.75152617002186,-5.22505232279127,154.536993247874,51.577290385786,103.629212078794,721.590017041273,312.559179533142,560.436684908772,4522.78817966524,4400.58232286477,5451.14490246306,-3.85566374275368,-5.63748842390669,-5.5573532010485,7.73136773726856,7.29085742946154,-5.46158103404832,1319.75119050583,1151.85355012418,1217.90291789167,236.017466467796,244.057102225402,257.829145834743,-8.12677961410463,-7.19039709189838,-2.10973979019309,-2.80657252358378,-6.06383851440478,-4.92116968421215,915.153795632777,923.121205226786,1559.50675770414,494.445279764088,373.30455469282,450.349023067663,-7.13581772191537,-11.6029754908686,1.17607552850586
,28,17915.7453378953,18312.7187416873,19075.920727114,438.385735807492,1398.56771007253,1423.24108552392,1069.92291563021,1959.9068398966,833.497407815374,2.74148425240037,-10.7903511015684,4.41725867885725,16332.5419345576,17222.6535470487,17478.9149998058,438.846980707423,390.104140167742,559.725935664023,329.319910707062,1455.37840781448,1671.91119584086,-9.14211217420143,40.5577972862575,-7.25638633863491,13804.3624342321,16705.0857820845,11142.4589056022,411.663235714268,446.951934755984,550.359104314047,2894.62110588317,2611.13926980269,3222.52595303151,2.02702859527108,-2.69704355121121,-3.14032503040471,8179.39062211947,7004.97298929011,4164.79397358135,416.799508723239,379.019990289365,883.923570372825,1071.94424882963,2084.23720500331,1529.52770839155,-0.607261546136215,-0.956450164645503,-3.17629993627088,1667.68967686065,729.454761978885,312.777655986697,457.686282450248,975.787799476471,821.01021559833,4951.4181118021,8342.07385845433,10272.6307386089,-1.45384275360811,1.97533438199935,-4.40807764044348,293.987977293386,122.690658222469,206.258692135956,1301.94696090434,632.079573367437,1038.52394386283,5940.08931244074,5971.8726825592,6570.45735966463,-1.10567800812078,-5.02832684859095,-1.69239592352733,23.0410763160162,24.5580266401075,13.9034840937393,2285.57283613235,2006.81149114121,2124.20556610768,493.287078153086,510.318282961375,539.93870218006,-1.46798306819801,-1.3001390070749,-10.3130362235797,4.5128613107463,8.97373993264227,-4.26287136134306,1523.75498191266,1587.3425777078,2509.96151073856,983.928768005508,774.279616628218,873.279012925477,-5.97004473866673,-7.34144709314842,2.40596293649014
,29,18080.709572649,18506.8072522363,19208.9212546535,782.767889540758,2210.60075673734,2238.92677950004,1744.72653882095,3083.83019644567,1394.78428375189,9.29408800105739,-3.58420114632372,-3.74949683820068,16827.7730962783,17660.846092469,17866.6586770115,787.890306211137,681.938584855261,945.674583828804,593.204122574294,2290.01174353203,2606.5781126145,-2.76500321137974,38.8154139900389,-6.93052916667784,15177.9212903574,17631.1734597766,13077.1280161589,734.835975991381,786.791411582549,945.188405046903,4294.48822039517,3972.69609725577,4810.59923493259,-8.15230010707182,-6.66647206604466,-1.91125788245427,10479.4949556545,9260.14142504363,5688.41862190696,731.822700948681,625.887567009804,1446.84729731252,1798.41869318765,3295.44231616264,2484.01619189181,-9.86003921648717,0.983735965677624,2.84337447861526,2509.9408423442,1026.30935023721,437.113761623065,820.063439144868,1669.76429330597,1414.82072854842,6719.62289582947,9852.10477157856,11591.1140359513,-0.693048103760702,0.718263433112043,-6.34578867486198,459.5586852017,200.89682475631,337.063454872574,2098.35134684789,1136.96298067109,1709.89795835765,7190.40195066182,7394.34446033502,7515.12266947617,7.53139852521872,-6.40192807642234,-3.21124563382637,51.9200767134207,53.2353838346216,31.0487942001355,3508.92986714539,3098.54757710159,3295.08043964053,891.887547863914,918.601079897826,970.591894595907,0.667770726527124,-2.40695109569606,-4.06192905164335,16.0478697621511,21.4466518162235,5.56615180128392,2349.01270894692,2493.17998577059,3738.2713947918,1718.60078067083,1383.30401251856,1531.19520348146,-1.00096210339689,-2.98902566610377,-4.62857321711454
,30,18194.5631167588,18627.9986819451,19291.971131921,1449.81646006483,3584.52370545238,3596.3990515966,2975.58653306338,4828.56532230281,2430.37664707159,8.62446620569062,7.94988027707495,3.69179387714121,17172.8497394047,17964.0681701267,18120.3196362236,1490.26608971922,1284.34212473801,1685.71745264695,1115.17433324923,3731.29444791693,4184.86823545448,1.45972266930494,43.8541905545708,0.649814457485263,16129.615755011,18241.9667196457,14580.541034891,1361.8791116337,1460.60135982217,1666.03217696102,6264.36564987086,6018.90104305327,7087.32010490993,4.64654846057329,7.19649629152082,2.92228133962089,12511.7846609339,11424.8590109508,7756.94513577494,1343.15450379614,1126.2597975644,2475.20412689096,3119.70061728427,5283.68041738589,4120.1417448532,4.75095361351487,-3.4240278994148,5.09096243154272,3903.11162179229,1542.48716630869,665.351723328662,1540.22692230994,2892.61140065656,2496.87976987317,8498.57236771008,11049.2088206659,12565.812101376,-0.589778679596748,3.07080170474546,-2.95185575086271,744.174822854325,330.980790000647,556.275354727565,3475.14481441863,2039.84836934206,2908.89427356384,8205.09901283285,8543.50823926009,8207.58934073896,-0.997754460154283,8.65148902719011,0.444187708052596,103.348185010776,100.294789746747,54.3894859390912,5408.8357665995,4803.84165170806,5132.58977110654,1658.23384906266,1714.47461084895,1763.81886458748,1.00865202062869,4.67359110644975,-0.698538268237826,32.1353735778612,35.0142150023548,20.714286597301,3705.48305328697,3981.23189371188,5566.33708840053,3042.11766029641,2505.69563428336,2730.2722388113,-4.61305854078,-0.199554954660016,3.37489818077665
,31,18291.347287232,18726.7839565305,19355.7832653096,2565.96615551455,5513.10217029937,5460.5686552312,4712.45079564875,6997.04053326589,3980.83488742268,2.7576656190322,6.73795450363014,5.54559482628792,17433.7221759575,18198.5273256422,18320.650606881,2635.9670781733,2282.48786268266,2897.85827815941,1997.22269453826,5688.14526716661,6304.77435100191,-2.60936945965568,43.6385427530977,9.17719132424827,16851.9465372949,18705.4741743501,15768.3157831,2413.83720044607,2577.0010820619,2842.30716609143,8186.59760860993,8235.31338074415,9288.74810689688,8.39010001168117,14.597972053667,0.44871313056683,14241.0300887042,13350.426542536,9764.40626839204,2348.83645075794,1981.21363853573,3986.97678854615,5042.19878651526,7788.42059703457,6360.07678709955,5.17566255595557,6.165440216766,0.697583769008816,5781.15895786881,2270.65089140078,950.483576250952,2734.49938657149,4763.55942378695,4180.74071832611,10178.5504817321,12018.535347311,13320.8904487165,9.65623183066873,1.61023600099816,20.7652077883722,1151.23289814489,506.127074386681,870.164118670274,5408.70200687495,3510.74038703022,4707.21989079635,9011.51423364621,9484.47507852778,8747.6721844752,9.36574631555504,0.202968807391699,6.29836565238475,191.025219695761,182.993622430951,106.756133346808,7755.30277484598,6939.38184487578,7520.47595857672,2941.57182433545,3051.48605550508,3081.14104469673,5.09932462295092,14.0651372788534,-5.0816810886754,61.831926243307,69.0323102671682,43.5297925715759,5574.96563167869,6067.12235303083,7910.33296897836,5028.51090677907,4271.06589940207,4578.97264609767,0.280509865017848,2.23789275259333,9.23093570858873
,32,18364.9900664671,18782.6363707021,19393.3407971065,4227.35722911953,7870.41871640616,7716.05917235445,6937.68562665009,9088.04747077037,6135.88725132803,7.35420392749438,14.8517974791357,10.615677503597,17632.0859958629,18371.8144548039,18470.9558576878,4400.78092943914,3862.72014306171,4698.02972397908,3408.13228139523,8142.03410491492,8764.5453065672,11.4279634135146,54.0056375340591,11.4277821873693,17375.0161597807,19035.518056733,16634.4738117114,4051.6688638193,4297.84927676681,4579.98234508417,9880.72715193362,10239.9511988392,11267.0278854731,20.1759831164381,24.3806153600717,17.6958563351345,15521.3333033201,14867.9268996277,11625.4761417409,3932.65984079819,3384.53055738762,6130.5771118447,7516.56959249972,10218.1352234224,8968.37371869745,3.65816964135593,9.94896278680972,15.087369246452,8136.24335755443,3280.38215681154,1352.54984892368,4603.05988722678,7226.93555112297,6515.94245267631,11547.5835837293,12727.2174364197,13864.2140094784,12.4740482529187,7.01194492990362,21.3758706933077,1756.10714385193,764.133892929885,1337.17820062919,7843.73865346864,5523.95404538709,7050.33067868945,9577.94405520349,10140.8902412876,9114.01337926701,11.9131914398786,17.1988405675611,10.912014595192,299.033341187424,301.983032913178,188.878383675984,10033.6733411796,9034.67299100227,9898.67441998869,4954.48178867349,5124.29213437385,5118.73759486625,11.0548205205951,12.4133167956943,4.49967045639733,107.122771716266,135.353344109334,85.449770558741,8031.04581007491,8669.84253729433,10254.3812913778,7744.8730551734,6692.88950792077,7086.88618114281,14.1447644365771,12.5754988184835,12.3520723233596
,33,18431.0357720467,18838.6135602025,19435.7859461939,6616.10113653553,10085.9911934096,9831.9813083402,9090.63346016161,10876.7401328266,8602.98300666747,13.0451348363595,10.1097523564558,18.8016338829357,17779.1069901381,18499.242991977,18597.4739996331,6940.52884279132,6252.33002378803,7225.90478307219,5646.5614926918,10439.7356955153,11014.1851260144,31.3212839220296,56.3510810520247,10.2057027704777,17755.3113049611,19277.5725411632,17266.3569084028,6432.65676567042,6842.54006426022,6996.11143675806,11132.6124313812,11792.9540437835,12765.5163595057,31.3240064417041,42.171754187716,25.7708230199933,16450.4972583965,15988.1967158667,13171.3296030756,6270.36972517397,5609.82526908449,8756.20196657672,9832.25491771589,12281.3766662555,11313.9180424618,18.4790560309675,22.2478574386096,32.5391910852859,10457.1935707517,4772.39991956175,1965.52250367924,7283.85142433458,9819.09479533512,9234.32122851716,12552.9335299974,13212.4436413614,14238.7080530439,24.3496938646422,16.3122099185694,40.7163411132988,2685.20435681725,1142.37444417923,2046.88726684131,10112.3144241657,7925.91974337524,9529.33714559804,9930.48174282222,10565.0516370906,9351.73042740765,18.6075384221522,15.289836203553,25.8028749313644,505.603119569901,484.901957452756,320.55195758964,12013.1833027609,10888.1070170717,12020.5048852493,7870.98590466482,8120.26390611025,8125.85627247782,29.7703048599169,26.0338272967801,11.321413303911,196.355854443746,228.15526655069,150.748288071306,10404.6831129771,11132.0700871469,12393.9696002434,10366.2589207132,9540.32621014715,9902.94617565583,24.678433156093,20.4573845904206,17.0965940272154
,34,18468.4279297804,18869.5800593664,19464.1960666622,8872.69229882648,11917.6005907574,11571.7617877508,10761.918946343,12153.1734812738,10662.9345640861,24.7481301806756,32.4469663030422,28.9606723836214,17883.6495458828,18592.9570691695,18665.0866737815,9406.06848451834,8802.44417958092,9619.26273060714,8299.73382020207,12339.8922186652,12812.5167237298,51.2325797545764,71.4746672975944,41.7936144933137,18037.9604072474,19460.4319870006,17722.5385351447,8847.49063891977,9415.60848988966,9208.93381979033,11922.8926770528,12799.6534718729,13724.3866651102,53.4880834253654,74.4990854991765,48.1424797927639,17092.036480139,16794.0700952735,14358.0494430175,8775.15554401904,8298.40885518646,11056.1072515857,11683.3361375699,13740.2608216552,13106.0561149301,32.8414433366715,26.3103570853318,49.4731321425934,12563.2795238671,6787.10754158695,2799.28255046938,9938.79313869819,11898.4291037038,11499.3533333131,13223.838686437,13542.8078534052,14502.512186902,55.7495068783173,36.2410311137037,66.7062614988263,3995.88347587264,1689.66372277985,3069.09463199526,11914.5425558492,9922.46735396716,11507.8387235303,10132.1434685754,10805.4744102462,9506.1070539273,27.3452563680667,41.2772808421514,43.7884131703368,797.504747988929,768.241984027446,505.774118156137,13469.2810889613,12265.7878247981,13627.5355734147,10855.014716706,10954.074039881,11000.9402037199,31.9507035205315,52.868289880761,17.8841028447796,323.681910228462,368.297319213411,254.962333918134,12447.5506117286,13163.2939142792,14049.5750349324,12573.1061526076,11960.4394447059,12247.028521754,42.0382806214166,32.3788829521254,37.0191887426745
,35,18502.0039231724,18919.1830810472,19491.88158186,10726.7530299455,13166.2441672782,12758.1758022507,11792.5218569749,12894.61237274,12095.2836960043,45.9571890073348,44.0144282726187,65.3590733461269,17962.4109310238,18663.0453661049,18718.8176038971,11425.2002897441,10975.2103199752,11558.2743575128,10662.8265052637,13622.8989607099,14010.5793348748,104.802660890926,91.1418118593738,67.2238203672177,18234.684599388,19590.21940299,18043.0606416513,10818.9564788688,11511.7890169527,10956.5313521824,12319.8131605189,13322.4248284445,14239.8765482589,105.725179204876,127.699187185259,63.2234065740267,17556.1725460731,17356.6629605046,15224.7872799361,10918.8719814553,10709.5675629248,12836.6375223632,12831.0183731674,14548.698913769,14193.7667133765,51.5481850313654,52.8312723612526,84.271619357678,14230.6084602492,8963.93083965525,3941.85315025598,12086.5952977157,13221.4319430607,13056.1209436317,13629.9881080378,13765.8442481038,14677.1660447691,98.0228307751604,56.453567557819,138.23207359012,5732.13226697795,2448.69167350432,4476.92400685246,12996.5281267595,11263.6225533082,12740.0561753663,10247.4048196594,10931.9890363202,9596.84787171829,49.6499588455272,70.9019779055079,79.7955015575935,1227.28270644372,1169.85742307295,786.932965302643,14359.5318995447,13123.6713619313,14622.8324072946,13371.7980904354,13352.7605571863,13458.4652215457,68.9898350477779,96.3846628319216,26.6069261906023,520.708693548669,591.210451891053,419.287661029706,13903.2541459987,14552.6308967041,15131.9119481079,14050.6924529157,13696.9492193145,13867.4529800698,83.7244192980443,68.6363916748942,70.8941355922771
,36,18520.7571894306,18931.7192774722,19505.4017844908,11971.7105519269,13919.7670545632,13482.3411334376,12300.1378467266,13262.9296490387,12865.238951932,84.1166308310676,88.3441185318743,117.528648283281,18006.9932159529,18719.6417454185,18754.1293557696,12748.8185718189,12489.9128623617,12806.1661426576,12410.8052100123,14369.0337628103,14689.0731869892,181.512440801059,146.61495033226,119.673523012801,18390.2528323844,19691.3150336387,18280.8207260144,12059.7027511472,12840.3695229221,12020.2954118344,12509.0840743081,13565.3586797323,14482.4630361721,183.362115852397,240.15129921611,99.1899057146793,17905.2721951574,17759.4507828048,15852.8923094068,12433.7606062299,12554.9937443072,13962.1185928427,13375.4533833001,14931.2518728313,14735.4361926475,92.1152301954253,82.3908281941249,139.244095075949,15466.5459878024,11224.7134234666,5544.6393304624,13455.3041986445,13868.6252336708,13877.9896552092,13873.5753874125,13903.3222897157,14791.2401714294,179.533182180387,103.726829388024,235.627962688191,8022.12451249549,3555.22861365104,6550.64981536913,13469.2355332701,11892.5820971604,13287.7051660542,10307.7801090324,11002.4438262728,9660.30812681647,73.8244830485837,125.349717389452,131.265632462066,1892.45046444125,1793.93983104815,1227.55254096404,14834.0966524457,13576.551825214,15156.9227110967,15158.066912396,15016.4614157351,15154.8376252328,134.291383134335,182.409740804552,50.8404530674379,838.615904380097,941.786813474831,677.645285095201,14774.0216029488,15327.0040927389,15745.0715016772,14859.8088749515,14722.1990157942,14789.5275946387,152.52264731844,118.097169469959,111.152483183221
,37,18536.4278493348,18953.290178397,19529.6936996252,12691.4518931521,14355.9489601168,13902.5915094886,12498.3588515688,13442.2534937559,13200.1568521475,128.171121478335,161.558203086842,222.579947650713,18045.6309038388,18764.3853172412,18791.0034303634,13444.5135516465,13329.539536171,13470.6053873295,13398.9360890025,14756.3266692466,15045.8334895121,343.085066873725,234.502415878711,206.509022938249,18500.5018463838,19765.1500241511,18473.1521842211,12622.3264947587,13444.8138492883,12477.9554333158,12611.7742717934,13680.4136866107,14606.147954152,353.213996497065,433.654877370143,179.823469323704,18165.1404331179,18067.2440628362,16324.5588960922,13272.1086377936,13645.3647366744,14574.9395411346,13577.1938267054,15078.6928638431,14963.6427509085,172.891717723009,127.851248145284,261.733006651256,16352.7001210159,13314.5049713924,7664.04620753727,14105.1937509584,14090.3706518791,14201.9882881106,14016.1994688054,13996.1108754098,14871.6334369744,330.318000600915,172.195617635876,439.562075038948,10310.4611715936,5106.39813621147,8779.37810587378,13604.1661843157,12052.6689747398,13422.4841421797,10345.3458276619,11038.7151952129,9691.6502468891,120.004764835846,215.570925859277,243.002038970253,2871.48746023308,2712.7675030231,1883.43546071156,15060.7495639858,13784.1305602005,15401.3194110632,16232.0968755317,16005.4474805706,16166.0385702909,219.570610613317,327.768206641896,83.0488968621339,1331.39850884701,1463.83660856746,1068.12188632676,15237.5254431186,15721.652752324,16080.5023676441,15252.6229329228,15249.3604314312,15230.7528805161,277.002027401584,219.505086220605,213.847120836189
,38,18541.5676460915,18956.1550721682,19521.2930138829,13021.66795832,14582.3016970924,14142.6741189273,12538.0346733611,13520.669265432,13295.1236702242,236.396922281084,285.28623865257,380.838660230127,18064.387281271,18782.5759251471,18796.8892834489,13693.3755501485,13654.4879922628,13723.5809077537,13771.0090282484,14901.8076580559,15179.1233245287,618.776853893867,398.650723609942,372.991043072709,18585.7855854315,19822.0446175931,18611.616187113,12719.8055811121,13565.6301850849,12565.5076577622,12654.9254647612,13732.6648708586,14651.1378554486,617.342014893188,772.469952515157,299.635349354492,18359.0722855548,18300.7663551709,16652.3873578532,13597.2553994456,14101.0084032614,14814.5773472258,13604.2390016712,15109.4707858091,15035.0630499333,316.858101324946,226.174897398464,467.40251768196,16972.0550708558,15019.2506562059,9845.6364817722,14274.2611690444,14110.012637102,14254.9129338767,14101.7721233867,14030.6463018093,14905.0839736322,583.395952571589,298.521899283277,793.949767871569,12436.5181247005,7158.15351258882,11072.2062378734,13583.2288449374,11977.5750117997,13371.5541137522,10363.816008899,11045.909917557,9706.99658419289,210.184333160351,382.842494105735,445.973811033266,4258.15545188234,4013.59312877141,2848.61941505125,15143.2634987508,13855.8310966408,15489.1759494788,16793.0932833126,16503.7735112145,16682.3259345915,390.654832080802,582.991927419337,151.504638318581,2075.13586222805,2236.14310092661,1681.33428124571,15457.0062096055,15878.3710358572,16235.9559857103,15405.1505276765,15471.9786636635,15414.4963725892,508.211972956557,372.463165995073,386.185559625087
,39,18519.0597417299,18943.8906349948,19500.0824179337,13126.8466970995,14687.9535246287,14254.7345005218,12519.0912686201,13530.8665064694,13295.2766738599,416.32018875335,487.034954442788,678.114906667342,18066.7917242869,18771.81900707,18782.5377706478,13704.573533413,13703.625355327,13755.0913585707,13814.2900994695,14932.4205516097,15214.5117584281,1090.141860328,692.038306237128,663.944055468009,18639.6976023528,19852.9591849876,18704.3981148723,12615.74599789,13468.1957690509,12478.9109912457,12667.5298361281,13731.6911402927,14655.1793829114,1099.51961902877,1337.40616715592,553.540979234058,18473.0838977511,18460.8611892742,16889.7811549304,13641.686853358,14182.6241162835,14874.5694248606,13560.4497225947,15097.8645886347,15019.5491803226,566.916607821942,395.653488345924,827.527732435235,17382.7762958035,16288.6117313502,11980.5198677891,14203.3960901412,14030.5801674231,14176.7712355529,14145.5488809526,14050.2034494878,14923.3979879134,1022.0475775995,526.740179388419,1388.30881100507,14176.5334124839,9265.20291253833,13114.9074549933,13504.5524395295,11835.3455467044,13246.5138005352,10358.232108066,11022.2486181484,9688.77829114382,345.927337607452,684.612959313194,786.415444530468,6104.28748416331,5736.22902491268,4201.18664845279,15163.2767017429,13862.0334406145,15497.8125642547,17037.9950994108,16720.3106724352,16927.7077361231,689.296270012176,1021.56353176044,252.355311290649,3163.32540687032,3360.54304876676,2566.65350688151,15520.7293076502,15935.3536054445,16291.071895909,15409.3358474564,15508.5973708309,15435.4788002841,909.662354925516,671.955910280588,681.013888557345
,40,18484.6653134975,18903.7777017329,19444.0893379694,13124.1196855882,14737.3437457736,14317.0122015326,12486.4722962139,13492.8825593646,13255.6411668349,723.565976086614,829.304818549812,1143.03579332915,18052.3576367888,18741.6041161782,18760.9095505733,13610.0631013964,13649.9365007758,13681.8396577528,13729.21368262,14911.4931259304,15195.3406673847,1812.8238413709,1152.8802753916,1133.03693062871,18688.7532897704,19871.0971852093,18760.0217924146,12445.8383382688,13299.2886099589,12354.1803009157,12647.9997969603,13695.7005391271,14632.3170795981,1814.51149212525,2202.33520812356,937.282101632011,18552.7852019633,18565.6301505087,17078.9034800131,13581.103854734,14124.96806135,14864.9092309044,13491.1919553322,15070.4128676845,14975.1765873735,971.896948498774,677.425544557766,1397.34545719513,17683.9858549634,17281.4415475826,13993.2100301856,14058.2321935864,13909.3054666176,14041.7015894444,14166.40847707,14051.5182423021,14923.5530228304,1716.59418921278,907.43968087528,2340.97231611484,15600.7068885321,11427.54633606,14879.3682176157,13396.522322274,11670.1085135976,13101.3599119348,10340.2277674998,10984.6174696196,9654.31688962937,587.2541245155,1183.36862796241,1348.79428728161,8207.43971846475,7743.80839691832,5970.52051432282,15163.0131098802,13841.9164305021,15465.1865497504,17136.8258076203,16812.9982609449,17038.4936868146,1185.57263504094,1716.48959370305,435.067179591384,4644.24992125615,4882.10871680719,3803.93386559502,15499.3492053695,15947.8722994548,16287.4852361644,15332.5737288458,15444.6274039009,15384.040117332,1564.22473914793,1165.08736606338,1163.03974524592
