,Temperature,A1,A2,A3,A4,A5,A6,A7,A8,A9,A10,A11,A12,B1,B2,B3,B4,B5,B6,B7,B8,B9,B10,B11,B12,C1,C2,C3,C4,C5,C6,C7,C8,C9,C10,C11,C12,D1,D2,D3,D4,D5,D6,D7,D8,D9,D10,D11,D12,E1,E2,E3,E4,E5,E6,E7,E8,E9,E10,E11,E12,F1,F2,F3,F4,F5,F6,F7,F8,F9,F10,F11,F12,G1,G2,G3,G4,G5,G6,G7,G8,G9,G10,G11,G12,H1,H2,H3,H4,H5,H6,H7,H8,H9,H10,H11,H12
,65,21065.300410625,21432.2226596544,22481.672339229,19429.56033802,20832.4995013968,20085.8000685522,19521.7593223864,20005.0870715638,19550.4273580959,5550.1936991529,5871.96762143709,6062.44935079,21206.6126627008,21786.0377240561,21991.209841274,19927.4154665263,19477.1692281764,20188.4930867124,19398.520000954,20042.2390945767,20831.8286100877,6815.57849637714,6151.13352784598,6070.81777456401,21758.8490959088,22693.7935942067,22281.9156809906,18884.9422901722,19851.9928943893,18814.2271446579,19909.1997224815,20436.321488204,21257.0682398294,6872.54887537362,7212.80296452125,5805.98466474135,21352.7613803941,21915.9804560806,20709.8825444002,19466.6346912191,20453.3784860984,21339.844268929,20006.9453685763,20809.0130937836,20498.0141008132,5968.75624490541,5523.53590721878,6277.22942055686,20759.1917862321,20983.7650107401,19576.6473131954,19645.3401201291,20427.2994423706,20596.2291882769,21846.8931938281,21689.0617436798,22657.1584560019,6564.9832964993,5777.13763602301,7418.6201539176,19772.9142967298,17737.4985774251,19662.7029131772,20466.8347771588,19212.8915737246,20246.007407491,22279.616526646,22757.25183897,21021.1128873503,5473.51050775352,6146.68551494339,6253.29354367311,15718.8511680684,15034.0685063762,14029.0109695658,21209.8744968429,21205.4995158663,21757.9958371949,21786.2078662946,20676.960564763,21358.0170773233,6043.39814672239,6560.91576156787,5249.98884878895,12598.102276159,12516.563049714,11111.0800431521,20145.9815365901,21125.9660817325,20890.5090038916,20880.287230381,20893.1168676589,20645.9940952136,6702.05088660809,5985.79450169978,6148.5455483766
,65.5,21004.2574280058,21364.3288739881,22397.6193911471,19396.6852287305,20793.5421694758,20043.3534819076,19506.152084392,19974.1869026092,19543.432319178,5524.7194707852,5849.53147807391,6031.97297284534,21138.7988343105,21699.0602376704,21948.7414428092,19916.8210770027,19478.6636673521,20178.2985832681,19403.679332843,20017.6582586565,20804.7912926327,6750.84221757609,6111.94068765712,6036.95133819554,21687.768665276,22595.7824321597,22187.8572708506,18902.7304801699,19867.0016863214,18825.0949447112,19896.2271286591,20460.0404545018,21217.2851660352,6806.23534175226,7134.01072585619,5777.5870840172,21220.9962480444,21818.190550135,20623.8021274,19492.782673782,20439.3388724007,21316.8327019388,20005.0882784812,20772.1780122899,20468.2266626209,5930.82860271421,5499.5818438683,6231.44380161533,20655.0234399146,20867.6260927938,19452.6525510309,19678.0093910045,20415.7266826177,20601.4091101868,21797.5947794214,21637.9615453959,22587.3791678274,6503.18608210918,5744.4697284727,7360.39951790211,19659.6805234684,17623.7714755204,19535.1455428555,20455.5218872713,19218.9518373237,20249.2614459048,22231.2198420466,22706.0042056691,20982.8654422154,5451.75403333659,6101.30511485979,6204.79702892902,15624.764663744,14916.1875792352,13928.8987338788,21160.3252068162,21146.9734743591,21713.9206239129,21741.7702303777,20629.6953006498,21314.0221411814,5996.83231394085,6497.21166230291,5236.82051048812,12500.4852651565,12423.514140148,11016.3868203548,20087.5351341772,21063.3019562357,20821.4948005988,20814.6140741978,20818.4891795001,20579.163647723,6643.58722390327,5939.91161040249,6108.74726571282
,66,20943.2144453867,21296.4350883218,22313.5664430652,19363.8101194409,20754.5848375547,20000.906895263,19490.5448463975,19943.2867336547,19536.4372802601,5499.2452424175,5827.09533471073,6001.49659490068,21070.9850059203,21612.0827512848,21906.2730443444,19906.2266874792,19480.1581065278,20168.1040798237,19408.838664732,19993.0774227363,20777.7539751778,6686.10593877503,6072.74784746825,6003.08490182708,21616.6882346432,22497.7712701126,22093.7988607105,18920.5186701676,19882.0104782535,18835.9627447645,19883.2545348368,20483.7594207996,21177.502092241,6739.9218081309,7055.21848719114,5749.18950329304,21089.2311156947,21720.4006441893,20537.7217103998,19518.930656345,20425.299258703,21293.8211349486,20003.2311883861,20735.3429307961,20438.4392244285,5892.90096052302,5475.62778051781,6185.65818267381,20550.8550935971,20751.4871748474,19328.6577888663,19710.67866188,20404.1539228648,20606.5890320966,21748.2963650146,21586.861347112,22517.599879653,6441.38886771906,5711.8018209224,7302.17888188663,19546.4467502069,17510.0443736157,19407.5881725339,20444.2089973839,19225.0121009228,20252.5154843187,22182.8231574471,22654.7565723683,20944.6179970804,5429.99755891966,6055.92471477619,6156.30051418493,15530.6781594195,14798.3066520943,13828.7864981918,21110.7759167895,21088.447432852,21669.845410631,21697.3325944608,20582.4300365367,21270.0272050396,5950.26648115931,6433.50756303795,5223.6521721873,12402.8682541541,12330.465230582,10921.6935975576,20029.0887317643,21000.6378307389,20752.4805973059,20748.9409180146,20743.8614913414,20512.3332002323,6585.12356119845,5894.02871910521,6068.94898304905
,66.5,20882.1714627676,21228.5413026555,22229.5134949833,19330.9350101514,20715.6275056336,19958.4603086185,19474.9376084031,19912.3865647001,19529.4422413422,5473.7710140498,5804.65919134755,5971.02021695602,21003.17117753,21525.1052648991,21863.8046458797,19895.6322979556,19481.6525457035,20157.9095763794,19413.997996621,19968.4965868161,20750.7166577229,6621.36965997398,6033.55500727939,5969.21846545861,21545.6078040104,22399.7601080655,21999.7404505705,18938.3068601653,19897.0192701856,18846.8305448179,19870.2819410145,20507.4783870974,21137.7190184467,6673.60827450953,6976.42624852608,5720.79192256889,20957.465983345,21622.6107382437,20451.6412933995,19545.078638908,20411.2596450053,21270.8095679584,20001.374098291,20698.5078493024,20408.6517862362,5854.97331833182,5451.67371716733,6139.87256373228,20446.6867472796,20635.3482569011,19204.6630267018,19743.3479327554,20392.581163112,20611.7689540065,21698.9979506078,21535.7611488281,22447.8205914785,6379.59165332893,5679.1339133721,7243.95824587114,19433.2129769455,17396.317271711,19280.0308022122,20432.8961074964,19231.0723645219,20255.7695227325,22134.4264728477,22603.5089390675,20906.3705519454,5408.24108450274,6010.5443146926,6107.80399944084,15436.591655095,14680.4257249533,13728.6742625049,21061.2266267627,21029.9213913448,21625.770197349,21652.8949585439,20535.1647724235,21226.0322688977,5903.70064837776,6369.803463773,5210.48383388647,12305.2512431517,12237.416321016,10827.0003747603,19970.6423293514,20937.9737052421,20683.466394013,20683.2677618314,20669.2338031827,20445.5027527416,6526.65989849363,5848.14582780793,6029.15070038527
,67,20821.1284801484,21160.6475169892,22145.4605469014,19298.0599008619,20676.6701737125,19916.0137219739,19459.3303704087,19881.4863957455,19522.4472024243,5448.2967856821,5782.22304798437,5940.54383901136,20935.3573491398,21438.1277785135,21821.3362474149,19885.0379084321,19483.1469848792,20147.7150729351,19419.15732851,19943.915750896,20723.679340268,6556.63338117293,5994.36216709052,5935.35202909014,21474.5273733776,22301.7489460184,21905.6820404305,18956.095050163,19912.0280621177,18857.6983448712,19857.3093471922,20531.1973533952,21097.9359446525,6607.29474088817,6897.63400986103,5692.39434184474,20825.7008509953,21524.820832298,20365.5608763993,19571.2266214709,20397.2200313077,21247.7980009682,19999.5170081959,20661.6727678087,20378.8643480439,5817.04567614062,5427.71965381684,6094.08694479076,20342.5184009621,20519.2093389547,19080.6682645373,19776.0172036309,20381.0084033591,20616.9488759163,21649.699536201,21484.6609505441,22378.0413033041,6317.79443893882,5646.4660058218,7185.73760985566,19319.979203684,17282.5901698064,19152.4734318906,20421.5832176089,19237.132628121,20259.0235611464,22086.0297882483,22552.2613057667,20868.1231068104,5386.48461008581,5965.163914609,6059.30748469675,15342.5051507706,14562.5447978124,13628.5620268179,21011.677336736,20971.3953498377,21581.6949840671,21608.457322627,20487.8995083103,21182.0373327559,5857.13481559622,6306.09936450804,5197.31549558564,12207.6342321492,12144.36741145,10732.3071519631,19912.1959269385,20875.3095797452,20614.4521907202,20617.5946056482,20594.6061150239,20378.6723052509,6468.19623578881,5802.26293651065,5989.35241772149
,67.5,20760.0854975291,21092.753731323,22061.4075988196,19265.1847915724,20637.7128417915,19873.5671353292,19443.7231324141,19850.586226791,19515.4521635067,5422.82255731443,5759.78690462117,5910.06746106672,20867.5435207498,21351.150292128,21778.8678489501,19874.4435189085,19484.6414240552,20137.5205694908,19424.3166603991,19919.3349149758,20696.6420228132,6491.89710237187,5955.16932690176,5901.4855927216,21403.4469427449,22203.7377839711,21811.6236302906,18973.8832401608,19927.0368540497,18868.5661449247,19844.3367533696,20554.9163196926,21058.1528708581,6540.98120726682,6818.84177119591,5663.99676112054,20693.9357186456,21427.0309263524,20279.4804593991,19597.3746040337,20383.1804176099,21224.7864339777,19997.6599181012,20624.8376863152,20349.0769098518,5779.11803394939,5403.76559046634,6048.30132584923,20238.3500546446,20403.0704210081,18956.6735023729,19808.6864745065,20369.4356436062,20622.1287978262,21600.4011217942,21433.56075226,22308.2620151296,6255.99722454869,5613.79809827147,7127.51697384017,19206.7454304223,17168.8630679017,19024.9160615689,20410.2703277213,19243.1928917201,20262.2775995604,22037.6331036489,22501.0136724658,20829.8756616757,5364.72813566896,5919.78351452544,6010.81096995263,15248.4186464461,14444.6638706714,13528.4497911308,20962.1280467091,20912.8693083308,21537.6197707854,21564.0196867102,20440.634244197,21138.042396614,5810.56898281465,6242.39526524306,5184.14715728483,12110.0172211469,12051.3185018838,10637.6139291659,19853.7495245255,20812.6454542484,20545.4379874273,20551.9214494649,20519.9784268656,20311.84185776,6409.73257308398,5756.3800452134,5949.55413505774
,68,20699.0425149099,21024.8599456567,21977.3546507377,19232.3096822829,20598.7555098704,19831.1205486846,19428.1158944197,19819.6860578364,19508.4571245888,5397.34832894673,5737.35076125799,5879.59108312206,20799.7296923595,21264.1728057423,21736.3994504853,19863.8491293849,19486.1358632309,20127.3260660465,19429.4759922881,19894.7540790556,20669.6047053583,6427.16082357082,5915.97648671289,5867.61915635313,21332.3665121121,22105.7266219241,21717.5652201506,18991.6714301585,19942.0456459818,18879.433944978,19831.3641595473,20578.6352859904,21018.3697970639,6474.66767364546,6740.04953253086,5635.59918039639,20562.1705862959,21329.2410204068,20193.4000423988,19623.5225865966,20369.1408039122,21201.7748669875,19995.8028280061,20588.0026048215,20319.2894716595,5741.19039175819,5379.81152711586,6002.51570690771,20134.1817083271,20286.9315030618,18832.6787402084,19841.3557453819,20357.8628838533,20627.3087197361,21551.1027073874,21382.4605539761,22238.4827269552,6194.20001015857,5581.13019072117,7069.29633782469,19093.5116571609,17055.135965997,18897.3586912473,20398.9574378338,19249.2531553192,20265.5316379743,21989.2364190495,22449.766039165,20791.6282165408,5342.97166125203,5874.40311444185,5962.31445520854,15154.3321421217,14326.7829435305,13428.3375554439,20912.5787566824,20854.3432668236,21493.5445575035,21519.5820507933,20393.3689800839,21094.0474604722,5764.0031500331,6178.6911659781,5170.978818984,12012.4002101444,11958.2695923178,10542.9207063686,19795.3031221126,20749.9813287516,20476.4237841345,20486.2482932817,20445.3507387068,20245.0114102693,6351.26891037916,5710.49715391611,5909.75585239396
,68.5,20633.4449395025,20962.6179078797,21900.1229927692,19189.312197368,20550.9024296957,19780.9501742197,19403.5464093887,19782.0415115483,19488.5719845664,5357.68965778148,5697.8408351706,5825.95938649224,20730.3843617463,21185.7233313472,21710.053249151,19841.9911677199,19470.6820618879,20099.8192187619,19420.4053206337,19862.6480886147,20636.7848108608,6329.6917103825,5855.17929653643,5811.70966633228,21263.4324043136,22010.2181177322,21627.585809866,18993.107753355,19938.0699044612,18870.5094052323,19812.5003170018,20601.1936584069,20975.3278790428,6374.37718507358,6623.76822145063,5587.36262606134,20437.1250712171,21236.7983845293,20109.2302767706,19645.1810847585,20343.3061725144,21164.196127161,19981.6897953647,20544.6637951924,20282.7417560199,5683.11575619768,5342.01161769368,5929.40536895542,20034.7183160204,20172.6648154065,18699.7122423239,19863.0266112232,20332.1410316454,20614.606408269,21496.4498617671,21324.7116139871,22166.8276250598,6106.1273503877,5530.89016713268,6977.88354761164,18981.0172676367,16932.6793114996,18768.1600748648,20373.2793897244,19243.0388687264,20253.1119749595,21941.1861134805,22399.1683023786,20753.2998477167,5310.41430219287,5806.04280687101,5887.83743242049,15044.9492301375,14192.8897467316,13306.8250473412,20859.9384844212,20791.9998430728,21442.2937326074,21463.8146911135,20335.709771095,21037.7194105029,5698.66247180135,6087.64433659011,5149.07109704018,11890.9274702422,11836.4633339593,10419.3099774699,19732.4216977005,20684.5008880566,20406.6022072119,20413.4307460693,20362.57429726,20169.1189633128,6268.30380609801,5646.45170154413,5848.1556324947
,69,20561.8673629197,20904.8760311003,21825.7158880231,19141.4868675381,20498.6854439022,19730.1197384116,19371.5961376939,19737.5830605138,19460.7085853643,5304.5558867755,5642.03040811521,5748.86040010769,20652.8332268604,21110.4041358592,21694.3087107094,19811.2409099524,19440.6255820717,20055.8091874768,19403.7045490207,19826.3831981321,20598.8238031426,6200.28374285506,5773.32344691883,5732.36904839604,21193.6899066521,21913.1459415811,21534.9110974181,18983.5718158583,19919.2371153616,18848.5793700651,19786.5775653508,20618.69538174,20930.031278911,6241.15830366312,6471.15212332989,5519.24408855086,20317.9431914722,21144.9429328842,20020.9254302621,19661.955128265,20304.7055404291,21114.8724311425,19956.212292658,20498.1078098492,20239.1594097649,5606.03217704782,5291.66856596367,5829.45826618358,19939.6473983033,20059.2110677714,18565.4354236096,19870.6874640019,20295.843230903,20586.5119603822,21433.1689864789,21257.3938985304,22093.2991287887,5991.67312929341,5463.3618981949,6854.2297476335,18871.1899527172,16804.650291018,18637.5468571526,20338.898753262,19226.6545201806,20228.0601519509,21890.164597163,22344.8957503347,20711.5661383717,5267.13958657997,5716.5349991349,5788.37487238694,14926.4787083236,14049.2058457713,13173.2080039032,20806.4075734119,20725.5456903263,21386.0275486611,21397.5133560461,20270.1913110396,20970.9621467137,5615.20233631129,5970.65047405855,5118.0647833818,11754.3265351282,11694.046331133,10275.9847155495,19669.3282580196,20619.2281425008,20335.354721034,20334.1375580768,20274.2389697173,20090.5985480129,6161.12578729358,5564.03737556634,5765.71918204186
,69.5,20476.0632302661,20843.7823903973,21746.1638442165,19085.1605332212,20439.9839186624,19677.4375410888,19331.1612893719,19686.6085004526,19421.5850155989,5238.66547043022,5571.5336570611,5650.37459212865,20561.2186496333,21032.3240330786,21676.0317459654,19767.1936845552,19396.6868262808,19993.9238342507,19372.1135005318,19779.3474690135,20548.9019243663,6040.64518132804,5672.02787734529,5630.51245161514,21114.9352867254,21809.5001077019,21429.805885335,18961.0889588863,19881.3398053039,18812.5301944243,19748.4636617614,20602.748111915,20876.6748537913,6077.35243522209,6283.76962757975,5432.8381867347,20200.8723529995,21045.7514098238,19919.7775580731,19663.6477048095,20247.667981994,21047.6622806013,19916.0409666318,20440.0317543625,20185.6659091461,5511.5135021199,5228.61556446959,5704.44719767054,19843.557260704,19940.7026277617,18424.7454374314,19847.7551764287,20247.7856599164,20539.0596110789,21353.6964590397,21171.5907958571,22007.1719210572,5852.86926737006,5380.23995519498,6700.11173203929,18758.4488304304,16668.2022293673,18501.8535135618,20293.308569806,19195.3039607592,20187.9861274096,21830.7028431777,22279.1599764702,20658.5591665518,5213.68376783538,5606.929985991,5665.41987875054,14799.6628831745,13896.4214479531,13029.1342385713,20747.6440967547,20650.2837591855,21316.8882250857,21316.6150602835,20191.280048113,20891.5743033778,5514.28141590706,5828.3423800378,5077.60048292647,11606.368512794,11533.7769126145,10118.4261813519,19601.2816892812,20547.4406246115,20258.9617701119,20250.1351134302,20181.9222689501,20005.1574650384,6032.13410386648,5464.58522420201,5662.9291092769
,70,20369.4764872513,20769.0398655101,21651.8899827805,19014.3785122393,20369.493328135,19612.7860008944,19272.2756867163,19621.4005873833,19367.663341411,5161.48237487398,5490.27845736551,5533.40806399687,20448.3878192056,20944.1342047114,21625.6607804131,19706.5381915805,19331.5561587206,19906.8416786286,19319.3685682878,19716.0164598215,20483.1259965773,5855.35535179281,5553.91933630765,5511.93897774341,21017.511293404,21691.5577793956,21305.8516116908,18929.980686409,19818.2125694584,18758.9964204333,19690.7075286369,20547.4988709809,20806.0849328917,5888.82667819221,6068.9698970414,5331.28994985963,20080.8901249365,20930.1742458681,19800.2824075789,19629.8505640393,20164.0595539826,20957.3197457714,19862.4219848148,20362.0602059502,20114.3947261606,5403.46779943047,5155.41071263611,5558.29152129985,19741.8834430055,19808.6138027662,18269.5990950475,19790.352373558,20178.7667162948,20465.5188659443,21252.5776795297,21062.5658504843,21902.7428338214,5693.10179184828,5284.24467765299,6520.76244823513,18634.9793985328,16519.1646531619,18357.4907782213,20231.0242717224,19141.9647888436,20127.3410047925,21754.1346938417,22192.6181228433,20586.017258343,5151.66814570293,5481.28519823336,5523.39456981371,14661.2478326313,13733.3761500361,12874.6684517979,20675.9436016912,20558.8861034329,21229.3376160988,21215.3405700099,20096.2230065597,20796.137224461,5399.54007273013,5666.02872902241,5029.51593188045,11448.5430782463,11358.2816286573,9951.06328279163,19522.4219910287,20462.8481377262,20174.8811883998,20154.1824066657,20080.9862587423,19907.1809618611,5886.05342578361,5351.31788060659,5543.72302762245
,70.5,20237.5295969959,20673.8669387604,21533.3915451492,18924.3638548901,20277.3915389919,19526.9148067185,19192.1462976883,19536.8718883265,19290.8290076728,5076.72060260621,5402.46603405394,5406.6705319012,20310.0816390891,20835.029918705,21535.0957017477,19621.2574267857,19241.1383392889,19789.4656323479,19237.4273626885,19630.0360011802,20391.4510603496,5655.59048647744,5426.84180249568,5383.87163741274,20898.6350880744,21552.1470885939,21156.2946758431,18883.5596679208,19723.7385374656,18692.1865732893,19608.1192356273,20450.6982569278,20708.6929556262,5687.38064784853,5838.656500627,5221.45229961487,19948.877529571,20789.1758297538,19656.8906244968,19557.5662208828,20050.7791833189,20837.0805662497,19792.938224593,20260.8039655294,20017.9198287926,5287.64711376097,5076.37288922859,5400.84128383628,19623.1266888263,19655.6206753693,18094.9854037977,19692.8409442951,20082.1093148204,20361.7141222644,21124.6633604932,20927.3668477014,21772.7404422051,5521.49237638113,5181.31939293854,6327.60315122494,18495.7659837615,16354.2616725026,18197.2694579774,20146.4732302775,19060.6865563896,20038.713259458,21651.9471508916,22075.4683191524,20489.0565345012,5085.11522593658,5348.3609082064,5372.38303964311,14508.0379541488,13559.2336361212,12710.2438244984,20583.3598229657,20444.0591597178,21117.502015209,21088.1070356019,19976.3857580488,20677.5460463894,5278.07068814787,5492.74933269669,4977.47454366701,11282.9564294096,11172.913509651,9778.19606793781,19428.3716440557,20360.0445649664,20076.6160225529,20042.749582986,19962.6806369087,19792.2970679332,5731.92950340548,5230.58675245122,5416.32164523437
,71,20081.4095275138,20554.6850803461,21387.5673553311,18809.9902925028,20158.4314019151,19416.2900227399,19085.6734390184,19425.0524478044,19186.2716385132,4990.0785199303,5315.09250840402,5278.73839368855,20145.9869348965,20699.5752248961,21400.6044113387,19507.0037040046,19124.3996780149,19642.6033193942,19124.071686227,19518.2489325571,20267.0303570427,5455.90576538195,5300.23772641682,5254.79231447932,20757.9374536746,21388.6167226847,20979.7167790528,18817.9490126687,19598.2378898462,18607.5086895155,19510.1494412083,20312.7865884457,20580.4943634434,5488.04717501575,5608.83656019285,5112.28382837653,19799.1794669951,20620.5487543863,19489.6182649975,19444.3765202541,19905.4866817033,20689.1519497164,19705.3691533334,20131.3514467348,19894.8182384963,5173.42922480282,4998.1375628629,5243.38745534469,19483.2238284282,19477.4423723587,17900.2929339416,19557.1656741764,19955.6686701967,20226.8430431495,20970.5144066884,20765.8948794727,21614.6057107647,5350.17276632806,5079.41153431999,6132.77365305272,18335.9496801111,16170.2328315501,18016.6327531805,20033.6454875256,18947.6483724761,19919.9979540604,21519.5663467631,21927.9258643873,20365.6768914611,5018.4502351603,5218.57358211511,5223.41494625524,14340.9868375697,13373.1712788047,12536.59692045,20463.696143213,20301.8221461121,20977.4557284171,20933.1945601744,19829.6267502897,20534.7014313899,5157.46392822094,5321.56802228227,4925.06349861982,11112.0968922888,10981.1904202564,9603.87630755082,19309.5215302612,20232.2800574792,19954.1821213619,19906.5382079891,19821.5150899939,19655.0543853304,5579.91517848674,5110.26281883854,5290.30047675658
,71.5,19902.4851564451,20409.2899492758,21211.6642908515,18670.4238532313,20010.0675068501,19277.1109783818,18953.7732631704,19286.6439859182,19052.4504298114,4907.70657686778,5233.99945239797,5159.66271886255,19962.4685152704,20539.606248323,21225.6203703633,19364.1565350382,18984.9627321015,19472.4963702623,18978.6241265811,19379.8088621728,20111.9397696392,5270.0705977207,5182.38318974723,5135.09802544259,20598.730497471,21201.7946405956,20778.6509312414,18732.6785898413,19443.8618845616,18504.8908237653,19397.1646627932,20137.7527339997,20421.3631117114,5304.7669524257,5395.11965823211,5010.31502831987,19628.3777212256,20427.20571921,19300.7909572013,19292.8000847495,19732.6982000616,20513.0813006098,19600.8214337863,19973.8737115276,19745.8459665494,5068.34531992733,4925.69219466544,5098.01382104324,19319.5341794759,19276.4262476833,17681.6210633406,19388.0668081133,19800.4085146999,20064.5767531683,20804.9462545221,20580.3165919465,21431.0990862674,5190.74945320364,4985.20640736808,5949.50314448238,18152.2780204104,15968.1613734712,17816.3867814915,19893.8196177287,18804.3415238319,19771.9640441855,21360.6879956973,21751.9724351502,20216.7851878693,4956.25385502074,5099.79182313295,5087.69457469326,14160.7267659001,13177.0498251107,12354.6715104859,20315.9336046129,20133.5372546788,20809.5932578268,20752.9924733659,19657.8349648832,20368.2591491456,5045.75969110349,5163.14366962867,4875.98708560035,10938.5446097728,10787.5893587921,9432.90959492676,19163.2845809087,20076.0985026022,19808.1288131684,19746.5009896999,19656.6144378564,19492.2445720511,5440.91864486085,4999.10846278434,5173.41712506148
,72,19707.9437147566,20242.0435989072,21013.1944975036,18509.4252328569,19835.0332415171,19110.1862356577,18796.1607415707,19121.7155078993,18894.009254617,4835.22764504287,5162.26884095109,5055.07703952149,19761.3060326865,20355.417425605,21017.2641496836,19195.8888783556,18823.8386872684,19282.1190982926,18807.5976168782,19219.0458857653,19931.963194705,5109.87158697552,5079.47702830043,5031.27278745236,20431.5236784415,20994.9673362306,20559.1767365228,18627.8677386452,19264.8153527337,18385.1721674313,19272.7399418212,19942.4006305837,20236.783564419,5147.48294719666,5210.80596905825,4921.46128120475,19436.8247052351,20212.8709188797,19095.7330775312,19112.0240289028,19535.6750669158,20315.9984848904,19478.0327319458,19791.9017077244,19573.5316629797,4978.32740696194,4862.59795785812,4971.82785854967,19134.3129315877,19055.9300615489,17443.8823742617,19196.977417011,19620.0123452243,19879.3852286617,20633.4747655518,20378.4455050447,21227.6039807307,5051.90718792117,4903.02288946687,5787.08225992449,17947.6152252096,15750.7081593835,17599.5828519477,19727.8862603872,18635.2937421511,19597.0566490634,21176.5848907667,21552.1108083437,20047.4227547274,4901.29809910996,4998.23148362086,4971.88858562525,13968.6268968884,12972.4120207303,12165.4432648378,20142.2126052442,19942.4335776256,20619.882696666,20551.8113694068,19465.7799440045,20181.4585704413,4949.43560283332,5026.78668949679,4833.10230980324,10763.0028868341,10596.809373347,9267.21549783532,18994.0328967094,19894.5833999231,19638.0927498935,19561.3755868502,19468.9236517433,19306.0904546162,5321.16492721028,4902.47458760694,5072.99483822896
,72.5,19503.10356332,20059.6753492222,20795.941106783,18329.0672129764,19640.5382447766,18923.3672547171,18619.3643334489,18938.7431348961,18714.1742273429,4774.15696299094,5100.43018821698,4969.57435675952,19549.7227888815,20151.2906728207,20791.4736415265,19005.0975651883,18647.099265049,19078.5497600315,18614.747706104,19040.5689366797,19730.1467136113,4981.26843249487,4995.29666507652,4944.9406408952,20259.1953976595,20772.388467151,20326.0634838289,18486.0614617039,19066.4278186968,18249.8016857035,19140.9005130824,19733.3315431728,20032.8697374618,5021.43849138715,5061.38872355285,4848.46736533007,19227.0163606202,19983.0418138645,18878.2787430674,18914.2112763524,19321.5127032925,20102.0113942439,19323.6631902776,19593.3626822537,19380.4985948331,4904.65242723734,4809.77976282825,4869.04619482696,18929.4721114389,18819.7636953725,17194.5480580451,18989.1064366731,19420.8644317321,19677.243845243,20458.1355497638,20163.7796887909,21007.338478101,4938.75656472941,4835.25929533976,5648.8835241009,17727.6752964082,15521.2298827965,17368.5883312315,19539.573778483,18446.4422547581,19400.5506485038,20974.5686554905,21334.1116394243,19863.2862259481,4854.6110868855,4916.778970867,4879.41156302717,13769.5724960261,12763.0770474873,11971.6480649454,19947.6523630219,19734.696160378,20413.2077342764,20333.9537284366,19256.6851445282,19977.7531538515,4870.90469672424,4916.45720046699,4795.59788660205,10586.8908206902,10411.5861317898,9108.71543456351,18806.0365680463,19694.7581743553,19448.904918151,19356.1002685488,19261.891898347,19102.0902741543,5223.52615850934,4823.33713921333,4991.52291375317
,73,19293.5002781247,19866.1621499379,20567.3283393085,18132.1028190869,19432.503964933,18722.1365092462,18425.5040068615,18740.2034813839,18513.8684350746,4724.10618486819,5047.53469919594,4900.57619601287,19332.4390225598,19933.8129396155,20555.9934085088,18797.5873523449,18458.9687605482,18867.0374046561,18407.3114295705,18852.5846436706,19513.3308748216,4883.87407348375,4928.50071609551,4875.71415022674,20082.5772443138,20538.9562853409,20084.791308755,18314.4038708245,18855.199537155,18086.9542716986,19002.3317799246,19514.0501189737,19815.344284918,4924.8041094745,4947.54578516372,4790.25152717551,19004.446779981,19744.2608160822,18654.546690334,18701.9894819873,19095.9176213916,19877.9557245607,19141.2194529928,19380.6563734024,19173.7945940898,4847.23101601725,4766.61556983689,4788.9310415787,18712.1087123574,18573.3105613768,16937.1103934368,18769.2646115873,19208.5594231683,19462.8437646995,20283.45118878,19943.5464921992,20777.4521358562,4850.85325036641,4781.05189198103,5532.66002601418,17494.9875086277,15283.5332381803,17128.0093035543,19333.405147939,18242.4137854564,19189.681204746,20758.4204942699,21106.3791092683,19666.0234600806,4814.94307923353,4853.81480983415,4808.36825816904,13567.0591494502,12552.2750968857,11776.02334971,19736.7427904138,19516.8499584228,20194.0556370967,20105.2434058619,19037.7479029162,19761.8443404464,4808.36814134064,4831.70660293508,4762.82201580399,10411.5101992014,10231.7500247689,8956.90363974354,18603.0057850339,19480.8567359829,19244.6609854456,19131.8549187125,19038.7866458897,18882.2146778166,5146.48381355342,4761.21317915227,4927.23253982504
,73.5,19080.8143519569,19665.7070794471,20330.595292179,17925.0537884007,19217.017150469,18512.0815229916,18219.4915755467,18532.3418324858,18302.3910533123,4684.12936430468,5001.18746047803,4846.12173968522,19111.5479484412,19707.0477395513,20315.5680455053,18579.470653186,18272.2386216629,18649.1894766261,18190.1490514146,18655.9939947291,19289.3626766578,4812.25576297234,4875.13582978306,4822.04133170632,19903.4074663519,20299.6492986093,19838.2238111073,18118.6069407893,18633.3258462026,17903.4634159136,18840.5539025612,19289.6738889392,19589.8933299163,4853.11118693779,4863.7273405809,4743.21184203267,18772.1514712057,19501.1019691404,18425.3443093733,18480.8987947426,18862.3456516293,19645.2957356087,18936.7367611647,19158.6251619305,18955.4264179189,4802.10756985944,4730.25621575998,4727.62398650648,18486.6787054417,18320.9759367724,16674.4090436853,18540.6731678461,18986.6194133244,19240.0208139589,20109.692948935,19721.0922207714,20542.660822609,4784.45226676868,4737.57352561055,5433.2589140712,17254.5873536224,15041.8059248783,16881.5834127301,19114.1382866068,18028.5084315956,18967.8271804917,20533.7969767096,20870.7871963525,19459.9669792435,4781.30399211862,4804.95264614025,4754.18700749866,13368.8630272881,12341.958472515,11579.5606583713,19514.6023802232,19292.1148628159,19965.8271314209,19867.4722428985,18812.4735784092,19536.489011716,4759.73407788911,4767.70679974357,4733.33930629535,10237.2100089425,10058.0224041829,8811.93887548547,18392.8343591843,19257.4209285737,19031.0244433111,18894.1418129938,18803.3578714338,18650.6757870505,5086.2176857166,4713.21613861851,4877.13111533592
,74,18867.2192481905,19463.811023598,20093.3029385857,17711.5652697137,18995.5535661628,18296.8804282373,18002.0132752348,18318.913792828,18082.0519821057,4651.05998160442,4959.47308903817,4802.60893388596,18887.0006390949,19474.0865641939,20072.26586862,18353.9307219389,18087.4341889655,18424.7972519797,17967.381299677,18465.4030339317,19061.5811634309,4760.56455038832,4832.18575574439,4779.27755006997,19719.574576394,20057.4783279502,19589.1410876243,17902.1631841857,18403.593072981,17701.6654052973,18659.5086313942,19062.8759607184,19359.76755701,4800.20167396663,4803.3165631805,4705.78987826866,18534.6086056526,19255.1429712457,18194.8376413697,18255.1560706183,18622.8024659849,19407.6700964737,18713.7970492222,18929.1545172388,18728.4165028457,4766.16099604063,4698.62150702336,4679.57106127384,18255.5332836832,18063.8130553568,16411.1335744076,18305.8747300552,18759.4054602427,19010.224347971,19916.2787028257,19497.8004400826,20302.438982758,4734.50737469368,4702.02327483273,5343.24120761827,17010.7322819742,14798.4578323585,16632.1133544974,18884.6785984338,17808.1930444225,18736.560129326,20302.5672525401,20630.9950075788,19247.7239625705,4752.29057646569,4766.53220926581,4711.64755281508,13174.2969220489,12133.2464996583,11382.741393251,19285.7559231374,19063.0307792064,19732.6161618886,19623.9861399921,18582.1035668524,19302.5446493414,4721.49462847539,4720.27171200191,4705.80474530652,10063.8598646792,9889.65457842879,8671.74390748749,18178.6255744215,19029.1973896596,18810.6449635435,18645.4680032892,18557.6566970008,18410.8132839276,5037.79909729566,4675.54016809826,4838.28346376371
,74.5,18653.8896001921,19266.9607153598,19852.7074256231,17491.8845810562,18772.0239214427,18078.8546326197,17778.0014694652,18101.9070655296,17855.5793235525,4622.47782950554,4922.25362060968,4767.58309414998,18662.9529398084,19237.9329648852,19826.8946491565,18124.9484003061,17908.0597368099,18195.924526844,17738.5644863309,18283.5616579006,18831.5645562777,4722.08356842171,4796.32746174625,4744.61042303546,19519.3035751389,19813.164089631,19338.2416586553,17669.7511063792,18168.1898002761,17484.3965788971,18461.1199746693,18833.8690393365,19126.3185178762,4760.78693681428,4759.51605638951,4675.55817644402,18294.2660428964,19008.6714205045,17962.5591040013,18024.8503957393,18383.1065774652,19166.627945475,18476.1273888459,18697.6106657482,18495.9301017801,4736.10797327051,4670.75323902178,4641.60526086501,18021.1638679795,17803.7926382363,16148.7207067638,18067.1196846276,18528.3296581792,18776.3907558532,19705.1575685547,19274.2604475729,20058.868373997,4696.5099709156,4673.17808966031,5255.85898135558,16764.9011772201,14555.6480864321,16380.9539924811,18649.6809030911,17583.0355505666,18499.699430616,20068.4247155475,20387.5297170443,19030.5778529948,4726.79402879221,4735.7606660604,4677.7967670514,12986.2521325539,11927.3535911932,11189.3276021814,19053.2713097625,18832.1906919046,19495.0252705835,19375.5880983519,18347.8432412416,19062.6759390186,4690.66295302747,4684.46776243085,4679.90015850942,9893.42792872293,9725.81466352211,8535.82428791279,17962.1901729056,18798.6274130978,18587.1815476118,18390.866786618,18304.3658466111,18165.2807069892,4998.07556916293,4645.34146446303,4807.10013214973
,75,18440.6782518167,19077.9080511914,19613.2267820751,17270.6287688074,18543.9698711856,17857.5321804657,17550.2335354258,17879.7016567053,17622.472797723,4598.28763607002,4888.44237259547,4738.17842542949,18439.1451457965,19000.6493581261,19581.124609373,17894.0687265763,17731.9124076964,17962.5910408776,17508.2354367143,18110.2791827125,18600.6788301189,4692.34953065514,4765.5594159819,4716.1210876721,19305.5678560245,19568.9528678097,19087.6543941154,17434.2596784435,17929.3717081753,17255.1593117594,18246.8060099217,18602.7530499565,18892.4631191503,4730.09289635842,4727.09152009953,4650.25566657102,18053.5309613819,18762.0346643001,17730.0542748605,17790.9990858323,18142.9953871722,18924.3273578115,18235.4161254874,18462.1507767805,18260.8009180108,4711.66643842986,4646.06461208373,4611.3483104797,17785.6484044305,17544.6308241049,15885.1756997813,17825.0939630726,18294.0242237641,18538.8660543265,19479.2710678738,19051.5832611516,19816.5052738864,4666.89747099555,4648.99786244954,5167.71810538119,16518.7487527876,14315.4834847903,16129.9081758908,18410.1599228545,17353.4064488089,18259.005369873,19831.1549550718,20140.8515890035,18809.3587423828,4704.76281192538,4710.54034695561,4650.27075030163,12802.9186471604,11724.5481640346,10998.5137270743,18818.5043580104,18599.0669499758,19254.9553470897,19125.3558647915,18111.5156270625,18820.3218223373,4665.03486268007,4656.91921181714,4656.4673684885,9726.61510615528,9565.79556646008,8403.80891635664,17744.689306519,18566.0269745112,18358.8248484959,18130.9679717199,18044.0470436956,17914.5172022486,4964.59550014097,4620.54927889152,4781.73853236855
,75.5,18227.2735431863,18895.4945139948,19373.9173393703,17049.7514642347,18315.0405939598,17636.5004426935,17317.7290698302,17654.5028315994,17388.3082787253,4577.78819242019,4858.46111932328,4714.74448253006,18216.3114836618,18762.1212388177,19335.3249978874,17662.0618649156,17558.0583370234,17726.0114141199,17274.8708098453,17941.8716071759,18369.0568499586,4668.72333202517,4738.86076417365,4693.2102077593,19082.2564434361,19325.9758772164,18837.3513757423,17195.0702368235,17686.1389057901,17022.2672547116,18021.6067949156,18371.694386727,18659.9609699797,4706.21013327432,4702.00532864417,4629.61660700767,17811.1947394574,18516.7900170815,17497.1649606178,17557.1217414326,17901.7866732261,18681.1689263802,17992.4425206917,18225.2385016324,18023.7356347106,4690.66690110844,4624.39121173816,4587.04555133198,17548.6941490509,17287.233931054,15624.1870246232,17581.3170665611,18058.6663700572,18299.1721368169,19240.4330110335,18827.5656785616,19573.2978826772,4643.62580515443,4628.79218553423,5077.22019409289,16273.851938223,14078.1747514372,15879.8630886603,18167.8094472247,17120.5468673911,18013.2377318557,19593.5804084301,19892.3146709964,18588.7264783084,4686.15476845427,4689.5610377117,4628.18117255914,12623.6286586096,11524.381426145,10810.2804024185,18583.4019897494,18363.2626164839,19013.7709649056,18873.0763048176,17872.7191376173,18575.596919795,4644.26385958601,4635.28992328676,4635.76237088696,9563.94481189508,9409.47758199811,8275.89452420354,17525.9341877747,18331.5713830262,18126.7823976603,17867.5171524397,17779.3986982618,17659.385455867,4935.10798576207,4600.06644363084,4761.39970777807
,76,18016.2117963798,18719.5135054003,19137.2944119896,16827.4302970426,18084.2523547355,17412.8961793627,17081.4150653044,17426.3590741853,17151.3606848948,4559.98189223338,4832.32697763409,4696.18811569944,17995.868923678,18523.962730539,19090.2521015601,17426.5750576594,17368.2434620104,17486.5030187005,17037.1344900085,17780.0814806862,18135.6499888797,4649.94119159489,4716.06342923413,4674.08127475463,18849.4620283813,19083.7003621852,18589.578840016,16951.4246839857,17439.4349625479,16784.6117374473,17794.6401014247,18138.0846792848,18427.2986727051,4687.54587875002,4682.75793720419,4613.13223571065,17571.204573796,18272.9542950172,17266.0278211567,17322.4703400389,17659.3269006334,18438.0347719983,17745.3028136342,17987.3138973991,17784.7812813301,4672.93470456038,4605.92816758825,4567.32303395885,17312.1741560787,17032.0033366007,15366.4758483111,17335.6340514906,17822.5853755475,18057.9750200695,18989.8910196858,18614.5513822879,19330.4082185929,4625.03302877199,4612.01070291313,4986.72716216925,16029.9401322272,13843.8383704827,15631.0175327522,17924.3199579878,16883.4786692757,17763.9477798403,19357.5027737043,19642.9223510232,18367.6295085325,4670.71398198178,4672.48260090639,4610.7716399277,12436.933534717,11327.3785623264,10625.2137573184,18348.7064609438,18127.1515773675,18772.2614464987,18620.6556511709,17632.1829339438,18328.9036541345,4627.35558319938,4618.67974708202,4618.24487770798,9405.39109703112,9255.62890875195,8151.23858263195,17304.4143238488,18095.1474011779,17893.8436760788,17603.6357835005,17512.6322238517,17402.0343537366,4909.43001859493,4583.39148364022,4744.93910172319
,76.5,17806.7086631239,18547.2334463527,18899.6689736181,16603.0309112972,17855.0348489605,17188.6122015288,16843.377764006,17195.3888828426,16912.3701517034,4545.24121625056,4809.65052873504,4681.53978454411,17776.7688828841,18285.6169389518,18846.3819172441,17188.1229445341,17163.6188378476,17245.5650000864,16793.9575579905,17601.7472624088,17900.7731214203,4634.25488034686,4695.99260407609,4658.39693629504,18609.6757139126,18842.5346535612,18343.8695618299,16704.6844636961,17188.7879810142,16543.5941039816,17566.4293787323,17902.2081521291,18193.9691664122,4672.59952976419,4667.20359035998,4599.99639678497,17333.0508654613,18030.6654610082,17035.2746101838,17085.2610124082,17416.184240635,18194.9987872251,17493.5893713046,17749.1795710402,17544.0347779677,4657.91296801367,4590.301450625,4551.98403452887,17077.6174310496,16779.1290483417,15111.8892091983,17087.8162370759,17584.9240433495,17815.3022804677,18740.3187503133,18413.4106219508,19088.3648742715,4610.0770686559,4598.5286696821,4900.57947494044,15787.1111195406,13612.5312466843,15384.0423662569,17677.7352990764,16641.2911011068,17513.7573473842,19119.9002606573,19390.8382681343,18146.9960690507,4657.54958328163,4658.22873658858,4597.45392995416,12246.0913627822,11133.1895087938,10444.6111934914,18113.5535231899,17889.9327420636,18529.3036551289,18368.6585763247,17391.635049228,18083.4090009993,4613.32810878848,4605.44167703533,4603.54246322748,9250.81174789848,9104.95709693146,8029.95994928544,17080.9204387646,17857.4109613138,17658.3685042025,17340.4273255421,17245.8432222914,17143.1134343568,4886.45837477203,4569.36067957726,4731.53667976407
,77,17596.3593409808,18368.345767455,18664.4492246045,16377.4970311524,17624.2067633348,16963.2809188287,16603.3575494439,16961.6223569799,16668.6236114955,4532.53670964761,4789.03629279075,4669.27792033792,17558.9570831392,18048.2511671555,18604.9647181776,16945.3742073391,16941.5189906699,17002.3022170292,16545.9430980771,17407.4226520263,17663.8212140635,4621.0265548138,4679.04636358069,4645.30839838586,18371.3146984572,18603.2177784946,18101.2896568105,16453.972000368,16934.6426946931,16299.8441686577,17338.2948594397,17666.027421727,17960.0709987806,4659.96398818936,4653.82549684193,4589.28033839423,17096.713505424,17790.4746152234,16807.091764207,16847.5934733641,17168.4304671782,17950.6460831979,17238.8242276812,17508.079196637,17299.6783247193,4645.10076406885,4577.32733947377,4540.11876811756,16846.101474311,16528.9406166646,14860.5451298023,16837.756771849,17345.4002049763,17570.2540440443,18490.8563474882,18222.458761699,18848.745616376,4597.50531327017,4586.80104077186,4823.80504252282,15546.2881663923,13383.8295388275,15139.792165483,17427.1931634897,16395.291519541,17261.1437097028,18880.6710222106,19139.4266262948,17926.5018188475,4646.0630148667,4646.08942739066,4586.73317381809,12049.4230137637,10942.1123612217,10265.4271129446,17878.4006390465,17650.5778888687,18285.6641769213,18116.6948700847,17151.0806498435,17838.113743856,4601.13968401304,4594.53539188624,4590.8759385791,9099.43542542749,8957.49245781327,7911.81946190627,16853.4714721606,17618.7488144449,17423.204057269,17078.9023167986,16979.7765723878,16883.2630721358,4865.2270740079,4557.95531258679,4720.43540550302
,77.5,17387.110201172,18174.2671024725,18430.5673458018,16148.829753002,17394.5820278973,16737.3861784246,16358.3529194214,16724.9605918851,16422.5545902083,4520.82051277602,4771.02831657518,4658.93773262512,17342.4701840014,17812.1808333116,18366.2693148267,16698.3746723218,16705.4224740289,16757.6638238598,16290.0844265923,17197.775575196,17426.1327446645,4609.79752818214,4663.81211600482,4635.08427327056,18135.3505743575,18365.1845055331,17860.189074508,16199.3259826521,16675.6997653365,16052.9145483412,17110.8208299467,17429.8486233952,17723.1603485011,4649.26692010644,4642.26730798086,4580.19966168091,16862.2934447015,17552.9291770878,16581.1089257353,16608.7137052636,16917.0597757922,17705.2023709237,16981.9214300507,17266.8509541065,17052.8177278474,4633.38796462179,4566.42676642829,4530.09138608189,16617.0280737648,16280.2968727315,14613.4910417112,16584.3766081236,17105.0168273255,17323.9658670464,18241.936285483,18042.4423099365,18607.708868751,4587.19452520118,4576.71671168243,4760.23883834801,15306.0812217303,13157.8345731274,14898.5398998905,17174.5624070851,16144.4640588455,17004.4739924425,18641.2468730989,18888.7909816359,17706.5667923287,4635.77167645668,4634.94152544659,4577.24279712763,11849.5630274942,10753.7826541055,10089.9451445806,17642.7536467827,17410.6992192895,18040.3410516874,17863.7753433171,16910.2703978099,17590.8951225656,4590.37134719279,4585.16112441806,4579.97625165866,8951.67753494955,8813.37391581099,7795.999358599,16622.7907203154,17377.5071043962,17188.6014533906,16818.6688513006,16716.2981137963,16623.3446505423,4844.80469623309,4548.59958625338,4710.63925378472
,78,17178.6957324018,17969.0731582916,18199.1719397987,15915.5002145398,17162.2068800191,16509.1815234859,16112.9226605224,16487.7949842666,16173.3064902272,4510.27092611078,4754.7527315994,4650.04111246724,17126.9662330145,17578.5725188525,18130.7353636042,16447.0034224228,16456.8989149667,16511.8148821607,16027.7376271498,16972.8536126724,17187.2710259379,4599.76262974892,4650.2096760615,4626.24954114499,17900.4436431159,18128.409989231,17621.4588065205,15941.9815148485,16413.7649481024,15803.8149281046,16882.2300108486,17191.6395061859,17483.687676247,4639.46215288696,4632.09183429731,4571.83130678434,16631.2634369822,17316.2008994274,16357.5350625133,16366.3662617926,16660.5306670286,17457.5951241593,16722.3173419106,17024.55418079,16803.2333024874,4622.7884212398,4556.96169495101,4520.70527588913,16391.8693755938,16033.5435110002,14369.882547293,16326.3905191517,16861.9133376731,17075.413272874,17993.6887780016,17872.3506197144,18367.3198666015,4578.01389770557,4567.2490224317,4712.16748601624,15068.5423144727,12934.8483888329,14659.9540874384,16920.1642383522,15890.2501213618,16746.9674335271,18402.2795304251,18639.9303797871,17486.7529930982,4626.27389768942,4624.17367759337,4567.52977085597,11647.5702202009,10568.9411667728,9918.14395887697,17406.4045554934,17169.4669299672,17793.0890600566,17611.9087083907,16670.5832662968,17344.4046817775,4580.31811668508,4577.01320062951,4569.88905213568,8805.83740921568,8672.45162126575,7682.99699282015,16391.6973337698,17135.6050019115,16954.9630133216,16562.8974490063,16456.4261054264,16365.6668596565,4826.09569424052,4540.56386273343,4701.59869890847
,78.5,16969.45402001,17752.6887427649,17968.8219659171,15676.3586366135,16924.9499374841,16279.6168032152,15868.4356900025,16249.5852225909,15922.6777943212,4500.36134999324,4739.4967832872,4641.73279883428,16912.7651011368,17347.3691546182,17897.6822394752,16192.4274154641,16203.6279734339,16265.5935087297,15760.572022783,16734.4703534905,16947.8699185635,4590.17464218984,4637.99381949638,4618.26120925275,17668.6190631937,17893.4161371032,17382.5674672565,15682.5726576598,16148.9623287001,15552.9608973067,16654.168125979,16953.0901458736,17243.9452553727,4629.59932546666,4622.18789098506,4564.18144549158,16399.194212857,17080.5148417209,16135.3342059827,16119.9992413328,16398.4256010587,17206.3716548132,16461.7662650071,16780.3203915364,16554.0801581596,4613.02334630054,4548.47376165937,4512.38117214803,16167.2055172568,15788.5322860828,14129.1796905811,16064.4017542467,16615.7758073333,16822.969816123,17746.8744878085,17686.2265093561,18127.2601463921,4569.61427096218,4558.69185315947,4678.63417738022,14833.3570151583,12714.9454226486,14424.7276750617,16663.4617314585,15632.6479876752,16487.4272763099,18160.4857648006,18391.8366722507,17266.7285775504,4617.01340808906,4613.77660939354,4557.85908930076,11448.7245523552,10386.8788214842,9749.12835600944,17168.17965177,16925.1751031094,17544.6434837085,17361.2658883796,16431.5404260379,17098.4305449437,4570.76264793603,4569.25721076946,4560.60865115394,8662.64797589138,8535.85375092371,7572.20618082542,16159.4179766488,16892.6900261595,16719.9569832681,16309.2240921611,16199.0172400154,16109.983930099,4807.92816351067,4532.68458998614,4693.26978603668
,79,16760.4037822869,17526.0305899458,17741.8329366628,15429.3622611065,16680.7155248348,16045.476388351,15624.582912684,16010.8833581119,15670.198286057,4490.28365075307,4724.32660883627,4633.57291539746,16701.0711599568,17118.0919004486,17665.679795132,15934.2020819707,15944.7987325264,16017.2084002936,15486.6005755527,16493.555800377,16705.6912094818,4580.90508337349,4627.04230954059,4611.42457883395,17439.636325415,17660.1529528672,17145.5418525196,15420.4552840063,15881.1634803961,15298.8080560511,16425.327663769,16714.2187165415,17004.3250600058,4619.62768421912,4612.7755647614,4556.19830548608,16168.2983754872,16846.3600237389,15915.109183994,15869.1060996043,16126.8328912791,16950.3950520408,16199.7394768198,16534.2933974866,16304.0365931604,4603.66658853422,4540.61460566604,4504.20629419413,15944.4694612988,15545.9533489136,13891.4194830106,15798.1087164001,16364.9340475719,16566.389912235,17498.990853828,17484.7096544157,17887.4613718705,4561.69789444952,4550.22899162886,4656.10983551276,14601.1615315379,12497.5981718378,14191.9767474927,16405.6505556864,15373.1499680001,16224.4345528216,17921.1897838575,18146.3840807388,17046.644646458,4608.35861834447,4603.81834853451,4547.55580583902,11251.6367118955,10208.1887588625,9582.65986930842,16928.1152388403,16679.0734320093,17294.5883756214,17109.3819761094,16191.1718602992,16851.772889221,4561.72573332259,4561.5597799447,4551.87379516891,8522.63255844339,8402.07664995473,7464.00264878852,15925.5448539677,16646.9023634525,16484.8399206064,16057.5488987066,15944.246573533,15856.3873900747,4790.49109447724,4525.52833626047,4685.45297638941
,79.5,16554.1892134494,17295.4281328356,17516.0350383896,15171.0115687237,16429.2007189886,15806.4063490418,15378.244269182,15773.2007945149,15417.2540970005,4480.30350765183,4709.48397634711,4626.26359823069,16490.7953147991,16889.9394837439,17434.72151609,15671.3094771802,15683.0828821084,15766.4955192056,15205.2078528889,16248.4231712244,16460.8756830019,4572.27365773518,4616.41223370349,4605.2851200022,17212.2306272573,17428.2896431799,16908.4070155085,15155.0384311013,15608.8983547559,15042.5925382225,16193.5773413558,16472.6296150494,16763.4595734681,4610.18991415373,4603.51699657412,4548.23707538648,15939.350800108,16612.501898683,15695.6213001227,15609.8553448489,15844.2699420676,16689.0334225453,15933.7559389092,16287.1554813914,16053.5892223161,4594.80791815851,4532.4946314654,4495.49392032944,15722.0398430432,15305.6044316683,13655.4684659467,15525.3896410194,16109.7587309189,16304.4472724529,17250.5503508207,17268.8189348504,17646.723223443,4554.29752519753,4541.82463943745,4641.50418994867,14372.0702980207,12283.1334178586,13960.6255581504,16146.1741891832,15110.1246282095,15959.0374328983,17683.2966396987,17901.1744620785,16827.7056559291,4600.50141783693,4594.05733791616,4537.38160219003,11058.0567597706,10032.6153124417,9420.39446954532,16684.0800103037,16430.271121457,17041.4698932661,16859.0782033762,15949.2329819436,16604.6280740232,4553.13619932394,4554.32758042706,4543.67233558421,8385.91715508375,8270.6756661063,7358.16844929892,15691.5140588801,16397.5868504404,16246.1219113968,15805.467703325,15689.8356255652,15604.6201094816,4773.49696449877,4518.32677166098,4677.99951244326
,80,16349.6896278641,17067.2413634975,17291.029860968,14898.5867235862,16168.4751057899,15562.6074897129,15131.9824416768,15537.5796696458,15162.1592561127,4470.07930268344,4694.50699635079,4619.529180737,16282.8962506416,16662.3298631919,17203.8752427367,15403.7229451633,15414.7447261762,15511.9328719298,14916.8170115196,15998.5766276046,16212.7745222442,4563.37734422095,4606.96704716467,4598.42980186826,16985.8907578107,17197.6692186078,16673.0600091612,14886.0079814186,15332.5135807906,14783.5488302321,15958.4456058259,16226.6573051899,16521.7392846977,4601.04814399073,4594.59518981104,4540.31735821162,15711.4291629192,16379.2949853908,15477.5675138564,15343.1262826637,15548.0590945982,16421.5083591748,15661.5959401365,16035.8484983391,15800.732109423,4585.9880661237,4524.71492254102,4487.04102746471,15500.8608819391,15067.1948194572,13422.7727105201,15245.7008191847,15847.9867732789,16034.9146381195,17000.6884141758,17036.2999536793,17405.9956956839,4546.35506334518,4533.39098014215,4630.94843051495,14146.4042657285,12070.7796041336,13730.0761053455,15883.8654997835,14844.6736313729,15692.0901209332,17446.3251284809,17656.3771939208,16608.7719023757,4592.72247590348,4584.79750782852,4527.34645180864,10867.2028279315,9859.90382216661,9261.12096759549,16436.9820101567,16177.096047625,16785.0859072549,16609.5773607141,15707.2387812918,16357.9322010434,4545.04642747361,4547.46464208613,4535.55159126013,8251.29342035549,8141.23447675574,7254.61836038834,15454.3652725815,16145.0582216653,16004.6325924082,15555.62481022,15435.5661902921,15354.363570094,4757.51710408593,4511.04504091445,4671.11635167258
,80.5,16148.307795323,16840.160612404,17065.9566658648,14611.6818006133,15900.8711606223,15311.3453408559,14881.5735262799,15301.4513478597,14902.8736549631,4459.91742062472,4679.36089417265,4612.37429231835,16077.3336187169,16434.423841501,16972.6632444983,15129.3495730021,15139.5981334652,15250.9242691707,14619.0543019718,15745.3847452835,15961.1808594119,4554.31728586692,4597.94854355717,4591.5570418644,16760.8488606458,16969.7260669637,16438.785218956,14610.9685995313,15049.8302030013,14520.571702517,15718.9880216128,15976.6244305636,16277.2743979567,4592.41351340722,4585.53743626349,4532.74788449504,15484.3039367137,16148.5660909152,15259.9495599536,15068.2671951201,15238.4638269777,16146.3873168293,15380.2344891607,15777.902552292,15544.0128925093,4577.77256657256,4517.34645734849,4479.68446067417,15279.7649942808,14830.0181496637,13192.482920224,14957.3260027744,15578.378989203,15756.4615484026,16746.3789562099,16788.783673737,17164.1756734593,4538.58309168832,4525.47765445616,4622.02219035312,13921.1506705455,11860.8392113348,13500.835947379,15618.0213050877,14574.4121857534,15419.783355713,17209.3940069131,17408.4377135726,16387.5935119289,4585.22161024099,4576.45578482768,4518.31161555374,10678.7786877665,9689.46083250842,9103.78647909441,16185.7181761869,15920.8322791271,16525.2889823838,16359.6741572657,15463.2587119632,16109.7536179381,4536.99988785798,4540.33571300498,4528.09119382694,8120.19884702136,8013.99989986673,7152.52764856033,15211.526379974,15887.0008525241,15758.7910462864,15305.1701948516,15180.0417021277,15104.9656863934,4741.58580031372,4503.97895613937,4664.87846863743
,81,15949.2806363309,16615.3485471546,16842.1847907936,14311.3096378507,15628.8443267741,15054.5252039496,14623.8267493474,15065.4236220036,14635.2771479857,4449.70273594251,4663.99535185549,4605.4064357606,15874.3431955118,16206.2795817064,16742.0091919492,14846.9241714323,14857.9372402477,14981.7230759431,14309.4031702545,15488.5062470337,15705.6799145074,4545.19967779372,4589.40735505067,4584.88710626485,16535.7085028923,16743.4407929885,16207.4565883424,14328.1547578827,14759.7697766616,14251.6221417607,15472.9248978642,15720.7061256813,16026.4020982264,4584.14140636013,4576.52517989098,4525.13129352199,15260.8881438096,15919.6335941059,15043.5470877401,14785.0299648833,14914.4811129322,15864.6449930159,15084.2701052463,15513.070183492,15277.915549784,4569.81852193389,4510.12917357338,4472.31348042907,15061.2477723224,14594.8381230751,12964.639461504,14656.2753195255,15299.0432318561,15467.6930002666,16486.2258374685,16539.3570228433,16919.5956634039,4530.63702310716,4517.39390459114,4613.11511663853,13698.1424483244,11653.0641998429,13273.4428459226,15347.7757441695,14297.8818751379,15140.5690408772,16972.5087126524,17158.3353006506,16166.6083228769,4577.9503044209,4568.47528578451,4509.75873589863,10493.1947692588,9521.91883724363,8950.32012829677,15931.5717948477,15661.5171853919,16261.3701532506,16107.2848711393,15216.4898911144,15859.8703857847,4529.01374562579,4533.52938936812,4520.22575072037,7992.22067065003,7888.12879242659,7052.87383807299,14964.3729950067,15623.3703865759,15509.6199579446,15055.5918257028,14924.9441323569,14855.6140237226,4725.94268238232,4498.11385750967,4658.90983096973
,81.5,15753.7938665427,16392.280924321,16617.9388617628,13999.0485878162,15352.8230178117,14794.5536870909,14356.0282954387,14827.1339402775,14358.8085568095,4440.04515530397,4649.34570658046,4598.94445471196,15673.6489260962,15978.3899682601,16513.6062346839,14553.3472217487,14567.0874487629,14702.7195334643,13988.3740263446,15226.5343395698,15448.5057739429,4536.44406435872,4581.24590521422,4577.64010438539,16310.9818134271,16518.1692719344,15976.7724223632,14034.567868245,14460.113635405,13977.331583643,15217.9114025543,15454.8003396863,15768.1362179295,4576.3725614032,4567.5905617474,4518.05670940657,15039.0876719183,15691.0606638005,14827.454502004,14492.5120422554,14575.7404380831,15577.2912863175,14770.6880102333,15238.3923754507,15000.3613215846,4562.16714363972,4503.2263422889,4465.5335754447,14843.2046151497,14360.939428429,12739.4929069659,14338.7554814292,15007.687949216,15165.703506965,16220.4896444123,16285.7017667431,16672.4437805037,4522.76679760203,4509.24944992481,4604.2754976753,13476.1015576172,11448.1746360199,13047.4054767372,15071.9475732765,14011.7847181855,14853.1011200226,16731.5368199797,16903.3596498532,15944.3740928829,4570.66649466679,4561.11879354174,4502.32617396971,10311.017908426,9356.98604381858,8799.66615530291,15674.195727979,15398.1918294326,15993.5601689062,15853.9578135711,14968.4058417088,15607.9026096463,4521.090904183,4527.20505944263,4512.63513052212,7866.7118126482,7765.0184923201,6955.12617772017,14711.2679226016,15352.9633559814,15256.5694597166,14808.1044697083,14669.6630980277,14607.9490604523,4710.3730928278,4492.63627741698,4652.78362571818
,82,15561.4844396606,16170.5144741379,16396.7133505299,13677.9619206882,15074.4412202419,14532.95934013,14078.4848984159,14584.9837808249,14071.5233245941,4430.49849260935,4635.24258682801,4592.68763554099,15476.1938278606,15752.3875214645,16288.3902579341,14245.8934131711,14261.6899797577,14411.0923605144,13654.264650934,14960.1646546943,15187.9326822627,4527.5718973136,4573.72601925291,4570.34385902064,16087.9955813,16293.9744473964,15749.7839565043,13729.0081960991,14149.3649482213,13694.182538409,14953.4458820746,15178.7289583869,15500.9261992251,4568.42091986697,4559.22613961243,4510.32490742099,14817.4428952434,15465.2036189249,14612.9827160205,14190.4120805367,14221.8395570955,15282.4579563082,14437.2164551839,14951.597769294,14710.8346701813,4554.5316411389,4497.11312180087,4459.65579931112,14625.5810827009,14128.8627069457,12517.8717671524,14000.4198597505,14700.2715044314,14847.8272312843,15945.7685824755,16027.7653652236,16422.3300210922,4515.05242877049,4501.53658776243,4594.71619473958,13254.5973587229,11246.496317955,12824.5554337937,14790.8291867434,13713.0582770592,14555.3424133092,16485.9111323179,16642.8687285608,15718.7296465432,4563.34029368277,4554.27473118799,4495.1775383367,10131.5403971856,9194.50007117937,8651.25495491181,15413.7138479359,15131.1975080769,15722.8125144361,15597.0872664111,14719.9962697484,15354.6276243603,4513.54503986432,4520.96642856132,4505.38495831475,7743.15414816989,7644.71322252678,6859.3197616425,14448.4195321277,15074.0039592479,14997.9444413977,14562.8953444533,14416.7755703202,14362.7177731961,4695.55284394134,4487.68040491734,4646.63701936398
,82.5,15374.0264426846,15950.2757081804,16177.5848758242,13347.631208953,14793.9937801901,14268.0003823377,13789.8899444082,14337.3649966065,13770.7213228836,4421.8075777779,4620.96768737126,4586.66267422239,15281.0732624989,15527.622801164,16066.1393598801,13917.9542060092,13940.5539652173,14103.7076471684,13302.6796383573,14688.437477385,14923.5956419758,4519.11670624646,4565.84137812016,4563.70547770189,15865.6594787985,16071.452162573,15524.1594417587,13408.8052062107,13823.1817648326,13400.5593340538,14677.4053877098,14890.9447782548,15223.7402547391,4560.23714387884,4551.11473194495,4502.73000316454,14597.5657562706,15241.5866614776,14399.2212686268,13874.416878263,13849.9458778454,14978.3052084197,14081.023461377,14653.8480139436,14407.0686546702,4547.22519204587,4491.1710211828,4454.14939089426,14408.3413902975,13898.9109217915,12298.5838831849,13633.9614319717,14372.4965673913,14509.5711161191,15661.8355729633,15767.2269151058,16169.7714507545,4508.0072257491,4493.97210213463,4585.14343924072,13034.3987209622,11048.1476448336,12604.7819786827,14501.6044095635,13398.8583212815,14245.178573605,16233.8938331537,16375.8059216382,15489.7294220757,4556.36974583116,4547.89335688461,4488.53665401077,9954.4698875059,9034.83819975823,8505.00953533353,15148.4354491723,14861.1034204838,15448.5210637614,15336.8818896883,14469.0121760941,15098.8056702105,4505.98323661225,4515.16233919187,4498.30147622315,7622.48960486545,7527.24828705638,6765.68952246906,14176.1710072095,14782.3047026933,14733.2370966255,14317.6443138937,14166.129572037,14119.3428772577,4680.90569927046,4483.07568625157,4640.5130711694
,83,15191.093275374,15730.7690995172,15961.0758986039,13005.5380824945,14510.0560868279,14003.367936672,13490.3737900993,14084.430945539,13455.8451398427,4412.99543538522,4606.45616482131,4580.93087860452,15089.3136066823,15305.2256522907,15846.5683802171,13566.8035978843,13597.8791237573,13779.0196293581,12931.1009367349,14412.6961930833,14654.5495407466,4511.03987365296,4557.86010378432,4556.76639559064,15644.4850155678,15847.7502155554,15300.5048721976,13072.3904822249,13480.077386842,13094.6485496306,14390.4201435268,14590.4983808171,14936.3841897896,4551.82976151573,4543.63489311275,4493.69544738295,14379.490197625,15018.9645640808,14187.541284174,13542.3923059189,13456.4624957942,14665.1291760533,13704.3805450624,14346.4673352873,14090.1573141461,4539.77579528142,4485.38383921864,4448.33842282996,14191.8884329957,13671.1358169529,12082.1473433578,13233.4234674358,14020.7546886805,14147.2882200444,15369.9539506905,15503.3953173509,15913.6754694637,4501.20438669603,4486.46567338944,4575.62853668727,12817.7944951767,10852.4356221973,12387.8644006259,14203.2985289172,13067.494974679,13922.5695598193,15973.8742933666,16103.9076731321,15258.0033240955,4549.50466703315,4541.39611330864,4481.92664545484,9779.86785358745,8877.50437898792,8362.13191295588,14878.8080513851,14585.8493664019,15169.6181460763,15072.1976776417,14216.4032428956,14840.6868517458,4498.49114531971,4509.92563687041,4490.84573283692,7503.82064070042,7412.30051328791,6674.3230275307,13893.6451951377,14476.082932651,14461.807333317,14073.7763533635,13917.3431037122,13877.8348955577,4666.68650169701,4478.47083858896,4633.91397243662
,83.5,15025.6766087881,15511.8780817719,15746.5484018319,12650.3838656261,14221.5739443608,13737.4063915196,13180.7579053573,13826.3553628378,13127.1071170988,4404.3488942208,4591.94317464266,4575.61501923298,14907.3172275188,15083.8066677367,15629.0603345364,13191.4589888173,13231.8355373308,13436.3660333061,12536.229697916,14130.3067910051,14382.087793468,4502.81723877324,4549.74588395828,4550.15205697725,15424.469808868,15624.2742731815,15078.9347293599,12718.777123659,13116.8588536447,12776.3045362304,14093.4275478636,14278.869363006,14642.2543558523,4543.9368161785,4536.94066499086,4483.55761218038,14162.1912122165,14798.0023104571,13976.1830723191,13191.1942042009,13037.5603222127,14341.7731345621,13312.0771550646,14030.6649646635,13764.2482172868,4532.55214443493,4479.72598306752,4443.09363042595,13974.9938226066,13444.5932924302,11868.265885616,12795.1622243597,13644.2822519987,13758.7844105667,15067.5065290125,15232.8588252325,15650.3793214648,4494.74139927834,4479.10565390625,4565.81794052921,12602.1473422964,10659.1139718867,12172.3415298744,13896.0640712442,12718.7570607516,13588.5630289329,15706.8242510376,15824.1647373078,15020.5264267478,4542.86372729499,4535.26662539389,4475.21568138252,9607.6806726075,8721.14264985949,8220.52891635784,14603.5539969677,14306.015149614,14885.7160023298,14803.409435986,13961.7484246351,14579.6925670778,4490.91774188302,4504.70891919441,4483.78263630219,7386.35404041593,7300.02717782061,6584.99307687319,13600.4588058528,14156.2282783597,14182.9626031725,13830.8305467243,13668.5815920397,13638.267134269,4653.02261907295,4473.08051428763,4627.21129040224
,84,14874.6766783438,15294.6403460642,15534.7238676769,12280.8461888499,13930.6891897574,13469.001608792,12865.7317994274,13565.9013976625,12787.9012936116,4395.6725182634,4577.60974504575,4569.51221213803,14734.6890171191,14863.6090081062,15412.8182822477,12793.7368214631,12844.5320179052,13077.7358519382,12121.0089382225,13845.3202293211,14104.2698197759,4494.34393897148,4541.41353564262,4544.45285456041,15204.639494308,15400.8196149697,14859.0423197762,12350.2706227925,12735.8765190253,12444.9648509494,13791.7219258798,13961.8793017618,14342.7421408899,4536.15646826972,4530.67607202472,4472.19689607836,13946.1335830228,14579.158427258,13765.9550663685,12823.8017072549,12596.8926085365,14008.8785832754,12909.9113314347,13710.9952286802,13433.1172940706,4525.69154134406,4474.32993245563,4437.50451312732,13757.9001785529,13218.384331695,11656.1120267916,12322.1291930307,13245.9340562426,13348.1517503363,14748.7014292873,14953.8148245914,15379.0590320032,4488.41025560193,4472.4095273775,4555.95149558627,12387.5945964971,10467.3967300788,11957.855655263,13580.1028392653,12355.5222569176,13245.2705266133,15429.1311177656,15532.8113178294,14774.6726335824,4536.21495174556,4529.13346370756,4468.06604948671,9437.04577507727,8564.9806758717,8081.20188882138,14323.2242706256,14022.1924537391,14597.4815278682,14525.9394644054,13700.487546547,14311.5405735246,4483.0798209537,4499.51806195944,4476.31228914294,7269.90263352932,7189.24628287381,6497.39957522764,13298.5775760268,13825.6604259412,13897.1927820385,13583.2627973073,13417.9785405541,13395.5046454737,4639.76029528754,4467.66258198,4620.91468631088
,84.5,14734.331271042,15079.4811177192,15321.8740355394,11897.8343412797,13636.1642618733,13195.7585544607,12545.6478203409,13301.7198392341,12439.5846136147,4387.7804611498,4562.90865081653,4563.322411861,14569.530955278,14642.2596148519,15194.6098599662,12375.3012868011,12437.112259658,12702.2807158848,11689.2676151212,13556.5936686356,13822.4948577742,4485.65305941065,4532.54010297254,4538.98020395269,14983.6978889282,15177.4201210054,14638.2066518223,11966.0671822869,12335.3784082039,12100.534834482,13487.7981864672,13640.8978429631,14040.2960308965,4528.9916880775,4524.77035178533,4460.69896435647,13731.8333271138,14359.6385257299,13554.8446437873,12442.41695816,12139.0960901518,13669.2397963521,12502.835466743,13387.5689398481,13097.0118707397,4519.20830847934,4469.04511774793,4432.23102262602,13539.9874081235,12990.6157452229,11444.9726100513,11821.2815202731,12830.3400568769,12920.7485202436,14416.4275186664,14665.2741005134,15097.3827557125,4482.00734756644,4466.07979598707,4546.02490674104,12172.5926817531,10275.5597065803,11742.5525938531,13251.8303837604,11979.703474947,12889.8294606425,15136.281555245,15224.3262561974,14518.0726610765,4529.57475290828,4523.45147609952,4460.74617886185,9267.2332868801,8408.43193445809,7943.17424067324,14036.9096154882,13733.4763702164,14303.2042301161,14231.8979936859,13423.5416527838,14028.6262965898,4474.66872715413,4494.59128265309,4468.56719911336,7154.34187278923,7079.59350691715,6411.45380725021,12989.92639621,13487.2700398216,13606.7517748251,13325.9859381531,13157.4602660292,13141.7517372001,4626.36921946316,4462.3498793639,4614.41832392529
,85,14600.5923419953,14861.8507732852,15108.2093326153,11498.8846934569,13331.9065939607,12913.88349968,12214.6575339464,13029.7593298342,12077.8229776152,4379.85660082915,4549.17924053237,4557.39279724328,14409.9707460565,14419.9915951186,14974.4636529311,11935.5455978772,12004.7946258745,12304.8533553114,11243.3249578483,13261.5953067092,13531.3237085622,4476.43493246808,4523.79924241781,4533.59903278531,14760.7206568142,14951.9962068585,14416.0057833539,11557.4742142524,11909.2370200541,11734.8727621783,13180.9990087379,13314.6827945639,13733.0018650897,4522.48529252269,4518.64109584118,4448.88575556807,13515.8566797328,14137.6042767556,13342.0069961038,12044.0768257032,11662.9230325966,13317.365252526,12089.9807463007,13055.3817617054,12754.7695051518,4512.7466805391,4463.57743537985,4427.03906393464,13318.7093653003,12759.3700563294,11232.0799610735,11298.3511815533,12399.9725509611,12479.8315986335,14069.3386910182,14364.6943717584,14804.5858792817,4475.60342311336,4460.11330770262,4536.16868628139,11954.9947810976,10081.3495943539,11524.1941648359,12904.1572837066,11583.1031937106,12514.0819494018,14826.4000563565,14897.0147058122,14250.2605792972,4522.97909341698,4517.93701093232,4453.27760345714,9097.20458377471,8249.77795112676,7805.58247705538,13738.0087436887,13432.3465253838,13995.4836128888,13907.7582997073,13118.5077489242,13720.6784128496,4466.32284701898,4489.31919117856,4460.99306909562,7038.36138168357,6970.22921475599,6326.11410544145,12674.1848947215,13143.7176128663,13309.1508766391,13042.2889513955,12870.0154093939,12861.8078810908,4613.06125994569,4457.19777959903,4608.03486594554
,85.5,14467.0232743155,14641.1913758182,14892.0033260801,11066.2048542265,13005.917636643,12609.8405831206,11860.1418785034,12742.7511107249,11691.1625518838,4372.34278071326,4536.41672772026,4552.77004075777,14250.2693055368,14192.9396975792,14750.1418161975,11461.3699243109,11535.7713412167,11873.791628584,10772.8701548938,12951.3447900375,13226.765654532,4466.6266724305,4515.16375842866,4528.48383935802,14532.9995425971,14722.9540990753,14190.0004156608,11102.3013686317,11434.8834010833,11330.682893195,12866.9153722232,12977.935190693,13417.5309443191,4516.3118149354,4512.39200927177,4438.43023386107,13295.4789626829,13910.4239914859,13122.597078626,11611.3907151287,11149.4847562963,12937.3755290319,11656.9264624512,12708.0380675606,12396.9854314189,4506.37587503552,4457.8621418817,4422.02221109282,13090.1394108991,12521.3730430158,11013.6664952574,10750.2413436221,11945.9113423157,12018.7990440963,13704.8949581178,14051.0059633186,14501.4688565849,4469.30722124537,4454.27905602662,4526.02051273107,11729.355494349,9882.0913613374,11298.9571252401,12520.1171077513,11140.9742679966,12097.9962747835,14500.1207243696,14548.1623361909,13970.1657199516,4516.62752231635,4512.79798997877,4445.68524986449,8924.83773485462,8087.81426112433,7666.27265569464,13417.7714862161,13111.3788230795,13665.1170656613,13523.3649453414,12753.3773305116,13362.0171461367,4458.20480320917,4484.28241867538,4453.42395109048,6921.19339760077,6860.16886559971,6240.61825272507,12346.0507024507,12788.8875239333,13000.8053831702,12705.1377345497,12529.9921348809,12530.8918364365,4599.7670076211,4452.2851485943,4602.3312619659
,86,14305.4022441259,14413.6728135725,14667.9465242743,10583.7562982989,12651.3281016675,12280.2232280463,11476.078053188,12437.4901812984,11277.3171407863,4365.03045981355,4524.17090752949,4547.71829074371,14070.9798993011,13958.8201566371,14517.3088652111,10941.9983626798,11019.300558171,11400.3276538026,10276.1667154844,12624.3401696793,12904.6001883111,4457.24582889635,4506.53987397162,4521.20575113284,14296.4991849602,14485.0103989239,13953.6564650958,10588.3634155804,10902.0814028643,10881.4476966157,12543.9374104142,12628.6386087801,13089.7569279273,4509.79216139752,4506.10180154126,4428.95141046254,13066.4473030131,13672.1041751108,12893.9816053216,11137.3044468505,10586.7659608079,12524.2655401184,11198.700981673,12343.2618710514,12022.6580217367,4500.02508188927,4452.48485546268,4416.61891903066,12849.6205462895,12270.1415546277,10785.5495861147,10172.8965163355,11461.3335817301,11535.1985362161,13326.5090187874,13730.4725123399,14195.4030971033,4463.01653517384,4448.90001695285,4516.18983036943,11491.9230565438,9673.65977788158,11061.514326,12092.6234725876,10640.053390063,11632.9618394646,14156.8439477085,14180.3296818315,13678.6539140278,4510.44526751923,4507.57466707432,4438.36923147447,8746.55538527169,7921.08876935621,7522.92984671079,13072.4549596675,12766.0680965324,13308.1099257162,13037.9681981984,12289.7374018669,12923.116932491,4450.51751045677,4479.64669507714,4445.98204249193,6801.67404327481,6747.03506215372,6152.60166707641,11998.4513553472,12415.9239642347,12678.4017914025,12297.5777062018,12122.0875913298,12134.1732258834,4586.24452440479,4447.9958385234,4596.96325851372
,86.5,14110.727642098,14172.3360427723,14431.2347056838,10036.2835837357,12253.8643625972,11914.7218396501,11057.8389455322,12109.1719649504,10831.125887196,4357.89740379556,4511.56488738445,4543.54029821755,13866.0077482975,13710.472831475,14268.5126660949,10358.9310721949,10437.718096167,10865.4482189479,9743.0743897486,12270.8563298265,12559.5500894136,4447.90622604471,4497.98761968143,4511.46076023549,14044.5975776819,14231.4159256975,13700.8713543982,10004.6413341618,10298.4030970342,10378.668011422,12204.589086127,12258.2425418675,12743.9620390368,4503.17578378674,4500.1316877149,4420.79938258735,12821.5618417918,13416.7001595038,12648.3030225969,10604.1059117374,9959.446425901,12065.9357978358,10713.4780654511,11956.0802901436,11628.9516792129,4493.28099261606,4447.20737053027,4411.86688701747,12589.2657246125,11996.3125857286,10539.3107301335,9564.57863215269,10938.9458974659,11020.05669135,12945.6218625799,13407.8481636181,13886.2674597852,4456.65741557518,4443.58016980555,4506.68655226495,11233.6591195246,9448.26471314405,10803.8290506717,11613.1333562974,10065.3706814191,11107.1712084118,13802.8399968295,13801.6305338465,13380.3458748051,4504.73688740568,4502.50690424207,4431.40615871285,8556.44794568999,7744.70101246282,7370.13210610209,12694.1251418998,12388.1480983163,12914.698857118,12434.0137404961,11709.1320785874,12394.1084729636,4443.25026528496,4475.47226234091,4439.28660033457,6676.89745523132,6627.42738153003,6059.64745542253,11615.8272795545,12008.1875503695,12332.1660329632,11816.0018710603,11639.5455605206,11669.6327813105,4571.37646481096,4443.99480190976,4591.55552159936
,87,13875.2630645865,13904.8250379507,14173.1921527451,9404.03109784324,11808.8343720029,11509.8494502858,10605.6165863329,11757.0488258455,10352.2820883414,4350.42560527378,4499.51346115979,4539.44813441851,13624.8570541109,13438.7963413944,13996.1090106357,9702.45792466383,9780.5316461099,10265.1543485923,9164.25062738378,11888.776684966,12187.8278728479,4438.73254960452,4489.91631460116,4500.03376396394,13765.8255432994,13951.0127451626,13419.949022902,9350.72039876363,9624.11955530806,9822.31349108591,11845.7248732397,11864.7059764532,12378.0363317009,4496.10102309102,4494.191990335,4413.4826532302,12550.8713803258,13133.0464294475,12375.3228464754,10002.3763109387,9253.90841428069,11557.4048296646,10202.6148014351,11547.8981768421,11216.304770324,4486.3911869198,4441.74699538262,4406.73371494304,12298.1857946347,11687.5742781023,10262.4460311309,8917.97322877581,10369.0245418447,10461.2410686178,12557.9311087555,13076.8566727162,13569.3020698825,4450.60382130218,4437.8165076119,4497.98537890157,10943.6742780941,9196.50544277037,10513.5945942293,11084.8026063216,9416.14442589333,10525.2320011565,13446.1203474216,13421.4971972376,13079.8131830054,4499.10273678649,4497.06189757819,4425.01671878522,8345.90344449605,7550.86325113135,7201.8961470691,12282.1795330011,11977.5717470456,12483.4367784914,11716.4518581148,11016.7586251097,11779.1920430284,4436.30274856955,4471.37090856877,4432.99447795639,6541.74432921902,6496.54394639005,5957.58575426763,11198.3394061783,11561.5200016286,11962.0965013654,11262.11876642,11085.8226926856,11140.1640634874,4554.14568174205,4440.28607130798,4586.77134119003
,87.5,13587.325264393,13603.0492180029,13880.4658327504,8701.94504760226,11323.5665736839,11070.0551708509,10126.0911561116,11379.6558328388,9850.68456694928,4343.46925079458,4486.71408348874,4534.41820904815,13334.9273711551,13130.8850781836,13686.8319746493,8987.75728879761,9063.07596508969,9613.91317123643,8549.32282116645,11472.3070370303,11784.8211546753,4430.22086198018,4482.09420336721,4486.59623575346,13447.8717143177,13631.7168517586,13098.298730212,8649.41925034124,8901.67207011726,9229.77077625618,11461.2613679248,11444.4008270892,11984.4128435967,4488.43106782522,4489.17196306436,4406.71994372967,12242.7013658891,12807.5979623022,12060.0723109586,9343.74493767916,8487.38114896456,11004.6191090053,9673.6699703928,11117.8001809775,10783.3098181539,4479.77609759178,4436.79829224404,4401.6559583156,11962.1461637986,11327.5893755593,9938.55397793268,8243.63026063715,9755.36373177512,9861.03802297158,12138.7280478286,12707.7324010248,13211.5158867263,4444.58738979748,4431.96009352578,4489.30345794646,10604.5447301089,8903.91689266825,10175.3804807652,10522.0706141723,8715.55172783821,9903.70365640766,13076.471538141,13029.753650582,12765.3509326725,4493.33255606484,4491.49352647536,4419.32140643888,8101.28484520937,7328.71617723176,7006.17603913765,11836.3914556961,11536.1372764018,12015.0912487367,10902.7731060603,10231.9646705908,11091.5625426284,4429.23154695508,4467.48119883079,4426.78728420876,6386.69150087446,6345.58276866451,5839.70984724271,10745.1418318426,11075.7255780407,11568.4309742921,10647.1724941773,10472.6577099779,10555.214881053,4534.65013287287,4436.28981986245,4581.62863153049
,88,13245.1894398231,13260.8087032688,13548.5628377221,7975.62737829332,10810.7443904911,10605.5600540247,9633.93902269739,10968.0023887456,9341.92333307578,4336.53494275646,4472.52380459644,4525.84447447392,12993.5319683561,12782.6231255789,13334.658663641,8247.85654732912,8316.76392593192,8934.66772560369,7929.47520000256,11006.9850985473,11329.9927230633,4422.01996437499,4474.78677379833,4471.37477974245,13083.4168605499,13267.4306882365,12728.1527151334,7951.5028579517,8182.77694659897,8635.42809613636,11036.8939455299,10984.9811270207,11542.0686784947,4480.44269464033,4484.60649329998,4399.86302955181,11890.8174425496,12433.3309873104,11698.7065302218,8664.50827168537,7713.58354734038,10423.5391911157,9149.00748500018,10655.5892322285,10325.17150827,4473.31890712056,4432.3769386226,4396.49983662681,11574.9177855876,10912.8421910621,9565.9104648469,7573.74462000934,9121.62590689639,9239.09541302217,11648.6443863782,12266.3550680257,12776.3626117491,4438.20191953852,4426.01286763798,4481.13439409366,10214.8806667618,8568.76665526988,9786.27227832209,9952.61722830949,8019.97336477779,9280.37737777087,12668.5273155622,12599.1113144906,12412.836895462,4487.3115632651,4485.75619929053,4413.9830133646,7820.82276337687,7076.50330900397,6779.65202464084,11346.624762114,11056.7156027738,11502.8321722778,10048.5334150045,9411.83670323796,10373.6264396959,4422.14081869118,4463.1025334129,4421.40124121889,6209.52296443477,6173.0539170106,5704.58067547295,10265.8006867056,10564.0578762326,11155.07977167,10004.2713882775,9832.76676868784,9942.58309676008,4513.16580654474,4432.25496359718,4576.06905517945
,88.5,12851.0894537297,12864.0492840491,13166.2702854919,7260.64002185592,10271.1639332604,10112.9297619238,9108.48807327073,10477.425435752,8802.53092367923,4329.83827720455,4456.97133380174,4515.48569424168,12592.6610402588,12376.6157586796,12923.5797497493,7510.1741220298,7570.15866901029,8244.55068236024,7313.92556959908,10436.1574736121,10759.4706478789,4414.15866121859,4467.85864029447,4458.22763145082,12656.7110056489,12840.1230308267,12294.6689053226,7287.3391672557,7496.84724698376,8049.10748392389,10516.8004216796,10428.8754962107,10987.8478028445,4472.42792183684,4480.02658605941,4393.54337274316,11480.9188682944,11995.6076344923,11276.9518924716,7974.4886562931,6976.63402810429,9791.8331678098,8607.39224121572,10102.8168796127,9784.61745548305,4466.66697894017,4428.00441924794,4391.44773534713,11123.4839085378,10439.1755675637,9141.74980260366,6939.59806400565,8475.64170048159,8599.80803610537,11057.2775974206,11683.8416360672,12177.6259348395,4432.09630982783,4419.72507953194,4473.73464616667,9768.30006100892,8191.0378659889,9342.47662889271,9376.49501121361,7361.00668418476,8663.21440396653,12164.0186460084,12064.8648911511,11977.4808058428,4481.32395758604,4480.34302539423,4408.97315871577,7505.84526513889,6794.19983904182,6524.13057574948,10761.4965000539,10491.5073229423,10894.9973454981,9227.78361418265,8628.15602017236,9672.72050980642,4414.53517656884,4458.58031017554,4416.15366117006,6010.5487564189,5980.62625257962,5554.4449215797,9766.70053567877,10033.4360637387,10719.5472667598,9343.56570545002,9175.67186617932,9313.33504010366,4489.68295172353,4427.85812244898,4570.01853947315
,89,12371.7306212342,12374.1285483598,12690.8248058771,6600.24457770805,9713.56871791715,9595.42935894976,8519.10749087825,9882.26066435227,8211.02894192754,4323.67116557689,4440.82159645885,4502.78270958172,12088.8075172155,11868.0934351523,12407.9843232702,6824.3080593785,6869.9443019395,7584.53626320773,6716.73101989691,9738.84483908112,10053.8267751308,4406.84070813749,4461.70479498606,4446.79932877166,12126.2838302168,12300.9270785347,11756.0572263428,6685.28973325592,6875.00064283892,7487.08178877009,9879.37612761116,9758.49466871477,10307.4001784841,4464.35144874645,4475.40758360235,4387.50037754505,10976.4994651636,11452.0991135338,10759.7230269225,7302.01118037617,6318.13630244699,9109.64283572688,8022.76172972998,9429.26805994499,9133.5581329437,4460.11392511971,4423.27973633167,4386.06785222583,10575.680292628,9889.51522649123,8657.5335041584,6361.33894398329,7832.82612688062,7957.3517941169,10289.6853820324,10881.709475856,11336.6723144261,4426.28645688188,4412.98470819515,4466.59708600668,9248.16116601717,7765.20618293888,8828.81051666876,8798.86875913077,6772.59559957185,8068.0622469257,11530.6170320435,11397.4531925689,11413.3539293966,4474.98964182235,4474.66139274041,4404.11312911084,7153.95813236885,6479.46376674963,6239.77270888163,10068.9475564312,9827.97198089358,10179.9482668557,8478.71417432378,7922.99994009026,9004.77330681055,4407.05422849907,4453.76196566363,4410.58012377098,5791.13656563092,5767.85290683479,5389.76423831174,9257.85117961524,9497.99029771958,10253.9076650122,8672.59583512008,8510.39222040402,8672.19264245769,4467.10595296065,4423.20243650138,4563.81900905235
,89.5,11703.3509130159,11682.0078611523,12004.1253467285,6040.21297282789,9106.45502102341,9017.59503580453,7872.77928261326,9167.89614724309,7574.80061346535,4317.7437755424,4423.56097780334,4487.6651183602,11378.2189401574,11152.2838495035,11674.2982282833,6224.54520215435,6254.85528004792,6967.28999347734,6168.50882728704,8911.26715939398,9204.19051386679,4400.04758591075,4456.11685180516,4436.65022647119,11397.7139200671,11545.6598491068,11020.6391671651,6161.29195707275,6334.34236220875,6949.05802088431,9114.85147659202,8967.79914855477,9480.86263373374,4456.16005019498,4470.58220742407,4381.90784820121,10300.4209080777,10721.3980743362,10074.1041630104,6675.14391717491,5778.7261412356,8374.82174617782,7404.19049020151,8639.98893193116,8378.31939238455,4454.042940301,4418.71712031396,4380.6756162078,9871.31910840764,9217.94408796987,8086.65018560328,5866.91933120627,7213.20519888307,7333.04867576791,9358.44209195435,9877.54201958813,10270.8625027427,4420.66971507961,4406.636403831,4459.68776819312,8617.70588013651,7271.64750509316,8216.40928598092,8193.45706563229,6269.03220726502,7484.27097948587,10711.4087576593,10549.3709030096,10651.1581180927,4468.7786257852,4469.33086836417,4399.56738457261,6751.77150874516,6124.40674446502,5920.39469911584,9248.66734488278,9051.8724308843,9342.31080053942,7797.05633880555,7294.18173076805,8350.43468913087,4399.62884109843,4448.76972652677,4405.21697999958,5547.41129129696,5530.7685508762,5207.26983554152,8689.72567787886,8913.97787291748,9685.60333338055,8000.44479006797,7846.3570062314,8027.59825489622,4448.18543790415,4418.08084414742,4557.36385177872
,90,10814.8965744086,10768.5497927611,11083.8046699044,5579.92666671675,8416.15016341485,8345.51691022891,7180.23759150838,8335.40690028837,6904.06134117394,4311.87197921967,4406.6989722541,4471.39713336762,10457.6120069513,10231.4586579273,10719.1027362065,5715.73245237381,5732.19493761757,6392.70399669241,5677.57301266838,7977.10664615303,8233.34415912404,4393.69407691883,4451.14393557122,4428.00307015371,10463.5143285731,10575.3833179775,10094.6692930405,5716.40888346667,5873.45776341357,6432.34042322755,8238.87076759184,8075.12562521194,8527.15473813016,4448.42864004955,4465.25845209278,4376.8783837985,9454.41581608827,9813.57264849268,9239.67507490269,6104.66787841195,5361.73380853481,7595.59905621073,6765.87064773773,7756.34663731084,7540.91344985198,4448.09582776862,4414.22643830237,4374.85484615934,9026.09495711392,8450.03352015363,7461.07697704551,5463.46732310967,6622.41031162968,6732.92400526422,8327.30836998965,8744.1669680099,9055.45841785083,4415.10692588731,4400.84967101716,4453.03212573514,7909.02513218298,6743.34357994747,7541.33804251091,7554.00382375268,5849.2263448241,6909.28225045401,9729.89717856286,9547.97972352439,9716.19583628443,4463.04549400346,4464.06113418765,4394.80633826765,6326.15886407031,5755.7602316579,5593.07158375764,8316.9157437891,8177.03789094649,8398.40498136584,7171.8140496414,6727.76423538383,7693.12690843601,4392.37700622148,4443.79122284129,4400.04325056371,5299.21211138098,5288.54674598158,5022.26504299931,8048.14253102857,8261.33229777217,8987.52165680743,7349.23793123364,7205.61221951141,7398.84891187753,4432.83043658315,4413.11422678108,4550.77485522068
,90.5,9727.5527270722,9655.23786537164,9948.46418422815,5210.50125637497,7666.56283457223,7603.05384720294,6466.9551568482,7431.6858468704,6223.4010889006,4306.92575774486,4392.07827417301,4457.70706415898,9349.58873602974,9128.93880660024,9567.23158299686,5303.43702801309,5310.68478487809,5876.97763881043,5247.68824093803,6999.66241839662,7210.47795102488,4388.15039975413,4446.74926026166,4421.49196293459,9351.35701068405,9417.19035132426,9006.39196498473,5342.93175201377,5482.45014834134,5941.2119021193,7303.65216570177,7134.97703244081,7509.96853351752,4441.08590875229,4459.99980132334,4372.3105136381,8464.59879258564,8757.26709156134,8282.23849486036,5598.57058661701,5052.7850975973,6805.79094987173,6125.66870183344,6832.67620283977,6671.02970051901,4442.38565970861,4409.54002666034,4369.11864320039,8069.62976577859,7610.73322309063,6801.04235308871,5144.7285623591,6072.16603421129,6170.00257663771,7295.28615488386,7563.64720363682,7774.78057218484,4410.1922903587,4395.36886717875,4446.41850531455,7145.17511284931,6198.16649694001,6827.66049642986,6892.01640861058,5498.87640475761,6347.25655337798,8646.32026572915,8460.77809649506,8665.80553410279,4457.41520689571,4459.13057013214,4390.17195727274,5891.31185328132,5386.30489296235,5273.07120642903,7332.44179170563,7255.44876519622,7404.73952535363,6593.05028547801,6212.35812119624,7032.61145501095,4385.28231840738,4439.03260561078,4394.6061023061,5057.02386511012,5050.12531891079,4841.97537744817,7347.38097260802,7552.42370653551,8176.50204468671,6728.24490956149,6599.54089175187,6797.47289091913,4420.89427934383,4408.19757829345,4543.98887850686
,91,8480.55561603591,8387.818747402,8641.10524834587,4931.8494501163,6889.53175476784,6821.33705454531,5805.53990607822,6564.06889810073,5606.9467342389,4302.45171232222,4380.47566186105,4445.80424685228,8105.30144033742,7897.54594157977,8271.17848375052,4990.81253129852,4991.95192223211,5433.67487630258,4901.8267662666,6114.25621627443,6283.29140959767,4382.66208458043,4442.60222401952,4414.55411069622,8113.21361746052,8128.71470692063,7808.57165156639,5040.62434937689,5163.117772625,5496.14219703874,6437.89110758746,6279.71963605243,6575.30353458357,4434.35220371711,4454.71734279414,4367.64588644875,7380.55310515709,7605.83667827404,7249.71073915975,5186.21976491875,4837.64027663951,6083.10767612102,5555.73161768974,6004.54012690417,5897.01331751693,4437.20154321746,4404.65471917144,4363.6786132426,7052.34868436952,6736.0115934836,6132.68277271401,4906.18307709822,5593.34529861597,5675.75240452871,6337.76391041955,6477.72875931032,6605.3179247441,4405.22175300694,4390.15425744858,4439.69177345683,6361.61216440178,5655.93606934228,6108.21967207329,6244.21120343284,5216.64188511371,5825.14640834002,7588.02340927885,7426.61668743427,7597.38723288587,4451.23437060548,4453.74330369012,4385.50241685641,5460.9894917242,5028.73778430772,4969.62176139651,6422.53289593517,6406.16148634238,6490.50355238792,6049.58816639965,5735.33951854522,6376.42835261534,4378.75321883051,4433.96393454148,4389.10213246982,4828.46425159173,4821.72115656621,4670.10321380233,6607.41994693047,6807.13472221548,7281.04471112386,6165.46891596669,6055.84115431307,6242.43025740746,4412.73064055394,4403.63278753626,4537.62229375366
,91.5,7168.32122203344,7071.38351574392,7270.99768343924,4724.42666976312,6117.49550732577,6037.05722800127,5277.82857395195,5805.24104440316,5120.4495314246,4297.63131560218,4370.85453562568,4436.33893767939,6838.79500831816,6655.73046401633,6951.88825252367,4755.82155300136,4756.9072179431,5055.51025091915,4655.73813916895,5396.74279430639,5521.5390265213,4377.57895048615,4438.46493873389,4407.89763218698,6861.85625839739,6837.3885222023,6615.04930317413,4802.88156806774,4907.81311548708,5107.3658695253,5710.02457417106,5575.04601465207,5778.5828319311,4428.10369224661,4449.17393014494,4362.48775671289,6304.64994710516,6471.73476120904,6242.30019344313,4875.81668620021,4695.3395716084,5474.71664734112,5123.06366248805,5352.94872949825,5293.66072149581,4432.78868184407,4399.97275504838,4358.18879475182,6071.72435214933,5899.87282111999,5506.71488726977,4736.99670810399,5195.03039367979,5262.32179851103,5607.6637538568,5652.7497603199,5718.63868406912,4400.33999637894,4385.26581310428,4433.39768970852,5627.49918410871,5157.93723319577,5447.82288629159,5642.06692828914,4992.90377386866,5360.17442132973,6627.00718527286,6509.69183276555,6608.53411184032,4445.21460930341,4448.62271737225,4380.91800461247,5064.11373673795,4709.0816868126,4701.45957788626,5646.34488936175,5689.07615710211,5718.51876220765,5545.42168257334,5293.37376285842,5750.77383797082,4371.87448483568,4428.68496315137,4384.07036521463,4624.11904851381,4618.19295901357,4515.86729867735,5866.42665325975,6057.68133459293,6357.68976862622,5679.24910270961,5590.78795585159,5750.89451397716,4406.93585067903,4398.98548520109,4530.77283164209
,92,6037.54042030087,5966.01238914465,6111.63262110507,4569.5608159318,5444.03947670095,5349.87571817819,4887.31818309403,5204.327536655,4766.47877894314,4293.29753161808,4363.9839282498,4429.36617501941,5800.44232989701,5651.86458829422,5873.98628843361,4585.98466764493,4589.8792968011,4761.07684846441,4489.99697312567,4879.15056096328,4968.94003279937,4372.57651777843,4434.58753727607,4401.40893391013,5830.29181002523,5793.31335599675,5654.90769518578,4627.15161434963,4715.66325636716,4800.69984737513,5158.36486918877,5052.33112841893,5178.97885583935,4422.6015598924,4443.74755328082,4357.18364646538,5429.43977687834,5562.56313166131,5447.83477638281,4656.89740121695,4599.38430832456,5014.51915420797,4819.248856689,4884.64693588157,4864.27077771197,4427.91392039548,4395.25268599011,4352.6224515547,5292.82733191044,5243.13728104047,5022.44565372985,4620.16172454709,4882.29148491336,4936.17511547597,5106.87294646187,5085.97610720598,5112.69253404668,4395.14893356087,4380.26141899152,4426.83418934854,5062.05813685018,4782.07819917414,4951.4066523985,5156.38117525925,4824.56047723234,4992.22568147587,5883.79977703486,5813.42479163364,5846.02179711034,4439.27215670454,4443.08493987366,4375.56921532746,4760.15493044973,4472.97279121543,4506.0654787763,5065.58113024709,5150.85762100627,5142.91522683808,5120.22046416355,4919.3178375429,5219.9669256045,4365.38255227134,4423.2595083832,4378.59730583172,4471.11372295468,4466.20109990484,4401.06436855647,5241.15859186244,5416.03140384286,5565.93984156119,5278.98618559724,5211.90965140445,5333.93730921453,4401.33027545467,4394.11027891972,4523.86136445173
,92.5,5201.63778228687,5155.47623705888,5257.64125237743,4465.21246831997,4954.73999285298,4847.8294489955,4632.93415262618,4795.12450190307,4541.15616181669,4288.90667742273,4358.46300252215,4423.16337790606,5047.59859495709,4930.65031833573,5095.09955504379,4475.28843802124,4482.83591445148,4560.54463610003,4391.6457515724,4561.11398889594,4627.69057278915,4367.74442170958,4430.86284594204,4395.16492619251,5085.32303766333,5044.93196419083,4967.96054035778,4507.75589152044,4583.76639988114,4586.6091086599,4794.74806994022,4716.27195322847,4788.46680596,4417.08726740443,4438.30386171702,4351.33481656802,4803.30028100034,4914.80690361844,4884.26449737892,4519.48101355295,4537.72333109406,4714.44011006142,4631.58078388147,4596.39021448641,4602.43770691537,4422.91784535429,4389.96095133004,4347.33618834733,4743.21958048977,4779.50461189625,4682.21411827965,4543.70627432764,4665.58348885725,4709.56272703451,4801.09814739717,4739.99616833097,4749.44838999108,4389.80872272785,4374.53754892404,4421.08369139674,4666.71225326097,4519.99320470308,4609.69629184165,4812.14983481122,4705.91108880476,4734.15888877382,5360.82373935737,5332.38223877044,5305.82005829312,4432.79029213243,4437.66680741264,4370.15961915384,4544.87776326129,4309.31314684299,4372.65112806224,4691.24808492504,4800.97038367021,4774.08659259769,4810.30232442369,4646.87141173275,4833.57125784905,4359.08846912355,4417.49210636912,4373.19925561867,4363.89118402592,4358.81615762689,4319.86066767152,4785.49831481535,4945.61888013061,4983.53521818962,4963.36107160645,4915.97528072078,4995.90137655038,4395.86933159834,4388.91413659282,4517.45735805517
,93,4649.88734153836,4628.96605446697,4700.26848774901,4397.62193104858,4628.45747499392,4511.77832170699,4492.05692188025,4553.52018079888,4421.02976610101,4283.55843393188,4353.48118370912,4415.7250044754,4567.69405287842,4477.59766095615,4600.84182470419,4404.51287917318,4415.33601282763,4431.61148153444,4342.35194111326,4403.66985282735,4456.46984771229,4362.6782728294,4426.86994373373,4388.50494708825,4610.76990384657,4576.057126223,4537.2581508663,4428.55889270929,4497.52760653411,4448.34807961718,4590.64443634181,4535.4456215722,4573.2762401808,4411.66606161429,4432.5250431854,4345.36321642564,4410.41269490045,4510.66740385135,4534.75022478113,4442.17538487831,4496.30321254833,4543.56056865781,4537.59830560861,4454.71103379095,4476.37052818053,4417.84000368206,4384.29005886591,4342.03061741879,4404.54793503457,4491.59396485193,4471.23080267107,4494.83337286443,4527.92659520094,4566.41378777759,4636.04996296821,4571.53783180477,4583.35054996794,4384.02849652317,4368.66366629366,4415.71134759446,4424.74593751354,4358.67185275172,4405.4411060188,4590.88045705375,4623.94911254048,4567.69865715153,5027.44655262899,5031.55081487231,4959.7876638682,4426.49991429746,4432.16225745796,4364.59727103905,4407.9280649151,4208.74427514566,4290.59352948367,4485.62560954878,4605.43481824198,4574.43973962379,4605.74852061946,4466.03824053041,4580.29138562621,4352.72931293424,4411.69059583477,4367.7327513158,4294.86206963471,4289.71742325222,4267.1181439197,4485.16771594637,4632.87474492668,4598.36604412451,4729.37493946163,4696.73834154588,4736.83239985939,4390.29626580792,4383.26146786041,4511.39238828752
,93.5,4357.5989694372,4358.56135937592,4413.35258710643,4351.12853661239,4441.53093503036,4319.33956767933,4420.62347326018,4421.00130480671,4361.07433510135,4278.12632512524,4348.67346684016,4407.18076771389,4330.14542004951,4261.00600897147,4359.69611737568,4356.73643922883,4371.99115264869,4355.33421296528,4318.38066423114,4332.40682495172,4376.34981548029,4357.69905652894,4423.15249062801,4382.36199962919,4375.3488827489,4351.85231851646,4330.85324479036,4375.5059663292,4441.29234616341,4365.37256465627,4476.25527411203,4437.50445604126,4454.58766106393,4405.88775767385,4427.15103835036,4339.462525368,4219.90755951273,4317.40149819721,4369.63976061324,4397.58394489429,4463.30386566246,4453.79785780405,4491.81568174701,4385.43063754612,4416.67254106537,4412.38188883448,4378.47922117484,4336.03741726005,4244.89129839086,4354.34128869616,4370.66251058729,4459.02842694272,4441.47976048481,4479.28753008182,4568.69708766618,4506.72843929377,4522.4927637711,4377.92543219604,4362.67368714557,4410.27194484456,4311.94250855286,4282.67616380138,4315.55210582142,4464.77942006898,4564.84274916861,4468.5014319167,4816.15627032997,4838.33905183233,4757.13847722086,4420.91686252107,4427.42771742417,4358.62934706029,4337.28660916932,4160.80607017009,4251.93198690585,4378.01489031326,4497.91298467816,4471.85045568952,4487.48109972584,4358.92388000899,4437.53490852153,4346.46983664601,4405.69436300979,4362.59352792353,4257.72919195497,4253.25887269897,4238.93408943672,4322.6877210962,4459.52222809706,4389.88408755807,4567.96360362739,4544.88545670505,4555.96292316355,4383.86888561334,4376.82447889353,4505.45599383445
,94,4269.83982899284,4286.21949369451,4336.21850557579,4319.18406944975,4365.70554095503,4241.55910539626,4371.57605688123,4356.16038177346,4321.37875093187,4272.69079411639,4344.99859918704,4395.5234319879,4272.08371698258,4213.6837253204,4303.27574928605,4326.4519065766,4345.11694904687,4318.50855876016,4299.60480525163,4301.10206074892,4343.1731037873,4351.77185767576,4419.46797204806,4376.6624498995,4315.29449696616,4301.00677028965,4283.52641370442,4339.74104881566,4405.51135951941,4322.09756329513,4410.89144245425,4383.07256154439,4397.37464899123,4400.19610271732,4422.90756620612,4334.42573650645,4173.0702795466,4271.24286427491,4332.13739603996,4367.08641845317,4435.06752737857,4409.83396009636,4455.50042285822,4342.13388739429,4379.04437186276,4407.02253334111,4372.8614290175,4330.45423714784,4206.69400529099,4322.0119194741,4346.38864459081,4431.4976042041,4390.9429551857,4432.03218482724,4517.24034568197,4458.19157486265,4475.21602656651,4371.87534825658,4356.5956981705,4404.39280518012,4285.47149625659,4264.17753346388,4298.7772834469,4407.37209080689,4520.35294896252,4416.11765738384,4690.83199841492,4719.01143691961,4649.17206704341,4415.8838793024,4422.9214812057,4352.04940175164,4312.11501469569,4147.32200780738,4241.68631593541,4330.04637035774,4440.61494513851,4424.98982618832,4435.87917268095,4310.40347641736,4378.26742157112,4340.30817209451,4399.86375457877,4356.98229935549,4243.35063664429,4238.59972821298,4228.29653032502,4265.69917659543,4395.94208922623,4319.87451394797,4461.91258355344,4444.55397787828,4439.31320088112,4376.6074591983,4370.33467916809,4500.02109372247
,94.5,4253.79707727682,4269.69052302408,4321.13391401853,4293.93586224813,4344.09579273731,4219.14473805347,4333.98633884092,4324.33648571381,4291.83521392235,4266.72840087068,4341.08782935136,4383.06270505219,4256.32765844308,4201.95365143703,4289.64549131497,4302.70300928348,4324.91318662344,4297.47369403194,4282.91829227942,4284.14411271527,4325.95913886662,4346.00628146252,4415.57544472934,4370.86515031593,4302.5580743556,4288.04659053258,4269.89901150757,4310.16400304042,4377.31643859223,4294.28475176105,4367.12611630025,4346.52216653522,4363.473567436,4394.18189615428,4418.44826691703,4329.26830600609,4164.10048198622,4257.41767790188,4317.0281837049,4342.19342467243,4408.55414011785,4384.80979897529,4423.72285314623,4312.32694120948,4353.52402177889,4401.68207094363,4366.84070469734,4324.74623871803,4197.0028282086,4311.44548638053,4338.3963782081,4407.12967732996,4359.56880432081,4405.60090201818,4469.79035283873,4414.95512473238,4432.64936921141,4365.62770499995,4350.54377638501,4398.91256735759,4274.16474469745,4254.53897452049,4291.69887345318,4374.26780216353,4480.85306277266,4380.51956682207,4579.35573501065,4609.84995643395,4551.44021695995,4410.80211071772,4418.8360300001,4345.84102508628,4295.72097080741,4137.892114048,4235.57667041121,4302.1049956285,4401.39487372969,4398.12144932221,4417.09142871418,4290.70866507813,4358.33660509936,4333.99086858055,4394.00247645038,4351.73621607502,4233.3712232718,4227.3471214927,4220.04228677243,4247.00748297935,4376.0070974393,4300.49561543104,4383.27380875051,4369.25884282144,4354.36094612101,4369.16207664257,4363.68701324176,4494.83104642678
,95,4242.31011639659,4262.44050608764,4314.91004857769,4271.28564892187,4327.45171683749,4201.31568612933,4303.5850306518,4305.01593707388,4268.3558199775,4260.90997101578,4339.1185358066,4365.94435942893,4248.11007646868,4192.67033040758,4279.60804521298,4283.15627490026,4308.59104055977,4279.91637102275,4269.4828860783,4271.70262898769,4312.6623162241,4338.21578628098,4411.63594997181,4366.67136556,4295.01289987824,4278.58832078851,4259.2603556217,4285.45810003634,4353.40496660413,4272.56262909057,4331.06059108518,4319.24802531461,4336.78858240889,4388.67146535249,4416.79827882398,4325.67334044447,4157.63758315958,4246.63129954057,4306.3913083229,4321.27933448821,4386.08049673912,4362.30796654402,4398.80707767403,4289.05054807677,4333.89512825357,4397.74950047979,4362.1475324687,4319.89141122501,4188.73929467332,4305.05424192183,4331.15474533579,4386.21896936806,4335.196239951,4389.22195697479,4430.02660692483,4383.09114319442,4394.41104408041,4360.28084755766,4344.63847855748,4392.10206897815,4265.27009830726,4246.87100034179,4285.4882135055,4345.46863210463,4445.64590011098,4349.13527339259,4483.92177214918,4515.27885133129,4470.53350202833,4407.30394722254,4415.23889188261,4338.35711418039,4278.21173294729,4130.26399917973,4228.90397715014,4277.82087777238,4367.29128738484,4373.9487706459,4409.03299381015,4280.9630025123,4348.82718485344,4327.26890089973,4388.46436539877,4345.86815672535,4224.00707947386,4217.7740313136,4213.41769585625,4234.28497955643,4363.4905359986,4288.45550343221,4356.48847538178,4343.19297835372,4332.70147807465,4360.90382347057,4357.41782233203,4489.33268203154
