,Temperature,A1,A2,A3,A4,A5,A6,A7,A8,A9,A10,A11,A12,B1,B2,B3,B4,B5,B6,B7,B8,B9,B10,B11,B12,C1,C2,C3,C4,C5,C6,C7,C8,C9,C10,C11,C12,D1,D2,D3,D4,D5,D6,D7,D8,D9,D10,D11,D12,E1,E2,E3,E4,E5,E6,E7,E8,E9,E10,E11,E12,F1,F2,F3,F4,F5,F6,F7,F8,F9,F10,F11,F12,G1,G2,G3,G4,G5,G6,G7,G8,G9,G10,G11,G12,H1,H2,H3,H4,H5,H6,H7,H8,H9,H10,H11,H12
,65,61.0429826191344,67.893785666291,84.0529480818982,32.8751092895313,38.9573319210717,42.4465866445612,15.607237994428,30.900168954573,6.99503891788481,25.4742283676976,22.4361433631797,30.4763779446574,67.8138283902381,86.977486385656,42.4683984647786,10.5943895235569,-1.49443917568624,10.1945034443274,-5.15933188899271,24.5808359201815,27.0373174549236,64.7362788010519,39.1928401888659,33.866436368465,71.0804306328141,98.0111620470861,94.0584101400314,-17.7881899977019,-15.0087919321109,-10.8678000533005,12.9725938223251,-23.7189662977867,39.7830737942177,66.3135336213616,78.7922386650562,28.3975807241544,131.765132349689,97.789905945659,86.0804170002489,-26.147982562954,14.039613697676,23.0115669902102,1.85709009511538,36.8350814937376,29.7874381923098,37.9276421911952,23.9540633504844,45.7856189415259,104.168346317482,116.138917946344,123.994762164538,-32.6692708754513,11.5727597528526,-5.1799219098616,49.2984144067937,51.1001982839152,69.7792881744385,61.7972143901188,32.6679075503013,58.2206360154819,113.233773261448,113.727101904691,127.557370321651,11.3128898874766,-6.06026359910675,-3.25403841386378,48.3966845994405,51.2476333008185,38.2474451349913,21.7564744169274,45.3804000835961,48.4965147440914,94.0865043244635,117.880927140952,100.112235686978,49.5492900267368,58.5260415071498,44.0752132819548,44.4376359169041,47.2652641131726,43.9949361418403,46.5658327815437,63.7040992649554,13.1683383008263,97.6170110024304,93.0489095659887,94.6932227972347,58.4464024128856,62.6641254968017,69.0142032928534,65.6731561831966,74.6276881587346,66.8304474906686,58.4636627048174,45.8828912972823,39.7982826637781
,65.5,132.259795674786,147.103202276965,182.114720844111,71.2294034606471,84.407552495657,91.9676043965483,33.8156823212612,66.9503660682394,15.1559176554156,55.1941614633448,48.6116439535558,66.0321522134259,146.929961512187,188.451220502258,92.0148633403542,22.9545106343753,-3.23795154731442,22.088090796045,-11.1785524261504,53.2584778270598,58.5808544856709,140.261937402279,84.9178204092094,73.3772787983412,154.00759970443,212.357517768687,203.793221970067,-38.541078328351,-32.519049186235,-23.5469001154906,28.1072866150371,-51.3910936452071,86.1966598874706,143.679322846285,170.71651710762,61.5280915690008,285.491120090994,211.878129548925,186.507570167205,-56.6539622197351,30.4191630116361,49.8583951454507,4.02369520608545,79.8093432364303,64.5394494166685,82.1765580809246,51.9004705927169,99.2021743733058,225.698083687882,251.634322217081,268.655318023165,-70.783420230146,25.0743127978531,-11.2231641380304,106.813231214722,110.717096281816,151.188457711282,133.893964511926,70.7804663589865,126.14471136688,245.339842066471,246.408720793499,276.374302363584,24.5112614228706,-13.1305711314021,-7.05041656336471,104.859483298789,111.036538818436,82.8694644591483,47.1390279033427,98.3242001811263,105.075781945531,203.854092703006,255.40867547206,216.909843988449,107.356795057925,126.806423265493,95.4962954442349,96.2815444866251,102.408072245206,95.322361640654,100.892637693344,138.025548407405,28.5313996517891,211.5035238386,201.60597072631,205.168649394009,126.633871894581,135.772271909739,149.53077380118,142.291838396922,161.693324343927,144.79930289645,126.671269193773,99.4129311441109,86.2296124381844
,66,122.085965238264,135.787571332583,168.105896163794,65.7502185790554,77.9146638421416,84.8931732891215,31.2144759888529,61.8003379091438,13.9900778357719,50.948456735396,44.8722867263584,60.952755889317,135.627656780484,173.954972771319,84.9367969295545,21.1887790471192,-2.98887835136702,20.389006888664,-10.3186637779886,49.1616718403593,54.0746349098499,129.472557602105,78.385680377731,67.7328727369312,142.160861265627,196.022324094169,188.116820280062,-35.576379995397,-30.0175838642172,-21.7356001066105,25.9451876446465,-47.4379325955761,79.5661475884344,132.627067242727,157.584477330109,56.7951614483084,263.530264699379,195.579811891312,172.160834000497,-52.2959651259057,28.0792273953562,46.0231339804159,3.71418019023668,73.6701629874742,59.5748763846136,75.8552843823928,47.9081267009703,91.5712378830506,208.336692634972,232.27783589269,247.989524329072,-65.3385417509039,23.1455195057138,-10.3598438197205,98.5968288135896,102.20039656783,139.558576348875,123.594428780242,65.3358151006029,116.441272030966,226.467546522892,227.454203809386,255.114740643308,22.6257797749572,-12.1205271982208,-6.50807682771801,96.7933691988783,102.49526660163,76.494890269983,43.5129488338556,90.7608001671945,96.9930294881817,188.173008648928,235.761854281902,200.22447137395,99.0985800534691,117.052083014302,88.1504265639087,88.8752718338078,94.5305282263439,87.9898722836806,93.1316655630866,127.408198529913,26.3366766016514,195.234022004865,186.097819131981,189.38644559447,116.892804825764,125.328250993606,138.028406585701,131.346312366389,149.255376317471,133.660894981342,116.927325409638,91.7657825945638,79.5965653275539
,66.5,122.085965238227,135.787571332587,168.105896163821,65.7502185790731,77.9146638421421,84.8931732890937,31.2144759888311,61.8003379091524,13.990077835806,50.9484567353992,44.8722867263547,60.9527558893187,135.627656780512,173.954972771339,84.9367969295463,21.1887790471114,-2.9888783513029,20.3890068886717,-10.3186637779745,49.1616718403543,54.0746349098763,129.472557602104,78.385680377747,67.7328727369182,142.16086126566,196.02232409414,188.116820280095,-35.5763799953843,-30.0175838642454,-21.7356001065687,25.9451876446128,-47.4379325956356,79.5661475884049,132.627067242728,157.584477330101,56.7951614483019,263.530264699371,195.579811891324,172.160834000504,-52.2959651259334,28.0792273953407,46.0231339803722,3.71418019030398,73.6701629875238,59.5748763846427,75.8552843823867,47.9081267009668,91.5712378830505,208.336692634965,232.277835892638,247.989524329107,-65.3385417508803,23.1455195056978,-10.3598438197196,98.5968288136019,102.200396567797,139.558576348868,123.594428780238,65.3358151005989,116.441272030964,226.467546522848,227.454203809387,255.114740643309,22.6257797749277,-12.1205271982262,-6.50807682769664,96.7933691988997,102.495266601627,76.4948902700426,43.5129488338687,90.7608001672014,96.9930294881765,188.173008648935,235.7618542819,200.224471373941,99.0985800534431,117.052083014343,88.1504265639605,88.8752718338287,94.5305282263248,87.9898722836761,93.1316655630828,127.408198529907,26.3366766016533,195.234022004879,186.097819131949,189.386445594469,116.89280482574,125.328250993588,138.028406585709,131.346312366381,149.255376317535,133.660894981288,116.927325409634,91.7657825945697,79.5965653275588
,67,122.085965238535,135.787571332571,168.105896163636,65.7502185789558,77.9146638421462,84.8931732893193,31.2144759890134,61.8003379091165,13.9900778355122,50.9484567353718,44.8722867263858,60.9527558893029,135.627656780262,173.954972771141,84.9367969296031,21.1887790471228,-2.98887835181995,20.3890068886021,-10.3186637780923,49.1616718404021,54.0746349096225,129.472557602108,78.3856803776135,67.7328727370232,142.160861265401,196.022324094367,188.116820279833,-35.5763799955275,-30.0175838640334,-21.735600106857,25.9451876448866,-47.4379325951545,79.5661475886286,132.627067242704,157.584477330179,56.7951614483505,263.53026469943,195.579811891254,172.16083400044,-52.2959651257192,28.0792273954471,46.0231339807383,3.71418018972417,73.6701629871272,59.5748763843849,75.8552843824327,47.9081267009888,91.571237883047,208.33669263503,232.277835893007,247.989524328838,-65.3385417510822,23.1455195058006,-10.3598438197696,98.5968288135327,102.200396568066,139.558576348965,123.594428780239,65.3358151006307,116.441272030972,226.467546523196,227.454203809379,255.114740643297,22.6257797751473,-12.1205271981448,-6.508076827889,96.7933691987364,102.495266601683,76.494890269566,43.512948833762,90.7608001671429,96.9930294882068,188.173008648892,235.761854281893,200.224471374046,99.0985800536641,117.052083013982,88.1504265635458,88.8752718336577,94.5305282264812,87.9898722837088,93.131665563118,127.408198529943,26.3366766016429,195.234022004774,186.097819132204,189.386445594475,116.89280482596,125.328250993696,138.028406585697,131.346312366479,149.255376317038,133.660894981683,116.92732540965,91.7657825945275,79.5965653275258
,67.5,121.326866440485,136.729529314129,169.242777849202,64.0631559747208,76.4320391332117,83.6058753192519,29.7207681495806,60.6762750201938,11.8417276514438,48.5843829357798,42.0266562723502,57.0935361084423,135.372406409771,175.376308102902,87.6238297846799,19.311517023536,-5.81358510493737,17.5036162485653,-12.69033103532,47.9074794202784,53.1108720691936,124.01708520423,74.7849553796813,64.0590304616263,142.518581737777,196.439433736899,188.796653589073,-38.3016911290424,-33.1816727728219,-25.03432340669,24.9633128576879,-47.6313649086919,79.0230068841383,126.964241417617,151.336298594316,53.4886658465346,264.650200911241,196.471023569279,172.479275895783,-53.0442125258974,26.1133911120892,43.5952718413541,1.67152309869425,72.5862082979006,58.4481634765111,72.4974521542126,45.6004856890401,87.0171180479202,209.120851636823,232.589874274862,246.494235042174,-67.1716092567776,20.7873374299579,-13.3402160492569,97.7044236112824,101.092272950547,139.245940728807,119.21518788345,62.4071290942661,110.909246331378,226.590777146082,225.99927837726,254.841199633152,20.2315867381649,-14.16628556346,-9.12036039933173,96.8510990371515,102.603582687417,76.481402988049,41.7128013933915,86.9308155859383,92.6629448142137,185.623607372268,233.093142672239,196.657759304763,98.5834163479326,116.415852640024,86.9544912945307,86.9869845398316,92.7982040805296,85.9343533124629,90.0025246547486,122.85107684277,24.8801126611438,191.258067188137,181.304927666783,184.566861244232,116.153634492756,124.858865127329,137.893844314079,130.155580528263,147.897250769033,132.150561737384,112.843751813596,88.7386890820765,75.9629091216113
,68,125.643891163954,130.885850276173,161.755364920805,75.0679533853195,86.0830944925797,92.5069508856409,38.946591914812,67.4090644516377,25.5504690769471,62.8870495594953,59.2293192892288,80.1968596153592,135.791524957966,165.948673931984,70.5815436145413,30.9703018382347,11.5255824218575,34.9508200621244,2.63965643894926,55.9936763541109,59.0003597490158,156.882249599521,96.4802537918192,85.8707384034091,139.879806787575,193.259054245746,183.588603397425,-21.0532233098074,-13.509225008017,-4.11084287783024,30.6599515168705,-47.1201135616329,82.4492114635718,161.115956720148,189.017751905179,73.3204711966224,257.78791998416,190.330405861879,169.561002481715,-48.6205565007403,37.7465783142457,58.632814118002,14.0760443922791,79.6376951705388,65.1627153960076,92.8341204868218,59.6634490546876,114.423162757221,204.363817722462,230.541095604864,256.742873244125,-56.6751388938192,35.5319538717145,4.95703348726147,102.513255082445,107.254342361626,141.122157673871,145.472947273753,80.0265569139037,144.259924601017,226.172675219635,235.255028738077,256.520219815912,35.5405066046496,-1.54098733186856,7.06026460200701,95.9517883769759,101.232900877616,76.0082572056581,52.5276073838049,110.216124293557,118.809281324554,201.954814670406,250.142339912927,219.60732123373,102.041122496449,120.184343758826,94.4901450030061,98.4493330321966,103.614597924274,98.5847838078466,108.886601470247,150.426423129021,33.5596282922183,216.568385036091,211.420043846514,215.018196192317,121.292490946842,128.179182048329,138.598128672852,137.411429932327,156.477648589607,142.284899723195,137.393281232093,106.866864734967,97.9257974707732
,68.5,135.56315810981,118.483329254176,149.644391185582,91.0930432679247,100.471934102798,101.979481324006,56.5993684606697,82.1410420403467,48.0201943146303,93.0304084142678,95.7182629303613,131.025432529477,144.807808812753,151.887183335856,38.9816358704243,52.2693201845568,46.021275249951,71.4230488861876,25.6613977119296,67.8299335708866,69.7511865464221,227.294120780365,143.013811466005,135.17128709171,136.816864610152,191.067961079057,179.902539484099,8.66710552115819,22.7951993692514,31.8001081337443,43.7366103272634,-45.4414956290425,87.5383546927073,234.074364635668,269.351188331929,116.613693396403,243.459298823987,182.184197275356,170.015665961242,-40.1978720952307,63.3282787082344,86.3492222305858,39.1842218859283,89.05873797086,79.6049157418424,135.61019764225,88.332277203456,173.434232935713,193.580281041664,226.565948179413,267.669744641511,-32.5975078395918,62.4178733187482,40.5508146806092,116.12751741898,123.093881193844,143.396448543159,202.847848290447,118.09803285561,215.521246621431,221.712839259523,250.537426882876,259.238687458339,60.5846197765609,22.150025024695,37.5800693393321,97.6073857701322,102.851435774494,78.1966883714458,75.9353715904903,158.348565653527,174.354261895125,229.011951185515,278.72905989253,256.953476627581,105.814252701553,127.965843805614,106.567420839856,121.52415525855,122.677859378398,123.035736138593,149.019823811153,208.378775025195,52.7942684098704,260.156781962825,266.040750034958,269.383363123184,125.88851291662,130.136776728219,140.346047914728,152.516590934113,171.806332333486,154.769750888247,190.591085911185,146.6472342978,144.278056172665
,69,154.914607705387,115.810676618741,151.034753410815,102.547023855109,109.680984421928,101.62775287609,70.5401254050525,94.1964363853854,65.8503280938298,119.387924122889,127.230853497259,176.415889297246,166.997303958436,151.192630852915,26.9055592354225,73.5114879187822,72.8970300578208,104.446448112026,46.0378561358107,81.2778895958731,86.0973971958379,290.094460109605,183.859033853983,182.316256521224,145.520286999602,198.595872952289,195.087631298071,32.4099353334477,55.0012861223804,57.2326936532572,61.9394351688097,-7.2620071790484,96.1565563066297,298.392833893105,341.484852579595,155.314380679389,234.790214063522,188.218170517476,187.084019126676,-23.5674971608591,93.3373790389787,114.635941876914,65.3016311120423,101.852321294647,95.2853382485869,172.515906715744,113.794601885486,225.906864111869,189.498362868206,229.563300143828,272.775798996485,11.8613510887244,82.6244677123013,73.7640872881743,140.583698993604,150.845306924695,156.917623147762,254.161074305138,151.386030405577,278.940105831544,220.33587317044,263.307557370504,265.097429566212,78.6388988726048,45.7651495437003,63.802691202814,108.127406202532,117.153115157598,92.0524151869049,97.0901265518031,199.964108471942,223.403423994127,244.867744368841,296.389932788964,277.97622775215,110.286657723525,139.711917951181,123.172853128218,145.559260976049,143.048635055287,145.208436831638,185.097561641882,260.292202577121,71.7170043010182,285.435754614513,303.583901182952,302.535490894502,129.373156045011,134.891486089207,146.596816844281,162.383195749472,180.141957752446,162.310256297841,237.357022209445,182.625424237904,185.963226828492
,69.5,190.535277140142,132.989725933764,170.645965720194,125.319749985383,126.671005905564,114.105755439443,97.1939160200427,114.048360303712,91.103162455468,143.936506672815,153.106800813491,217.388305715919,202.543423096789,163.244339423402,62.3709824945031,102.814667673401,107.168610701519,146.897747395316,81.951647986341,108.386969841735,113.3747836685,347.554317432162,221.149231808108,222.600422716916,174.105264957497,219.105711390985,226.864125299242,53.1968250266586,98.9775000383638,89.723460851958,93.7632020561541,69.846114098938,120.822640789692,355.276077757037,405.391014914038,189.620463847223,234.696165106533,211.754490225462,218.800754865387,28.2036083216444,138.773483729395,155.550987009621,93.5951486621834,134.086833588261,122.215923601231,204.174396417017,137.404016359229,273.461645658456,195.086669198066,247.955663334124,293.660631661679,78.7491761038837,114.430066673508,119.17541158311,178.82399238655,193.546603013791,188.393862814054,300.655954259073,180.561165023528,336.242999800044,234.07219160007,284.244577308643,278.259669093902,106.031615478294,82.5275897264214,98.5590769609721,133.166710663591,149.086839450767,123.357954502263,116.412075126671,237.386084757942,267.398004634732,264.155954924953,315.49690921184,298.622532333378,127.855518718369,164.222668632029,154.787957183319,180.279105462952,172.070403798726,173.071002317991,217.451054165972,307.013159399274,89.4657097729448,306.382769037069,337.094632582819,326.376258755139,145.200013713798,154.43061918445,158.967012735836,178.160008034204,191.02133790809,181.753132305877,277.367431564545,214.315168430846,224.022541349146
,70,237.968538459341,168.188777056859,210.671643307713,159.146141935581,160.080832562752,148.392026548442,137.699539132218,147.560380716533,128.601852759511,163.51359595781,170.933847391012,246.585079233411,250.374965398237,194.587334004346,138.964009061767,143.875476034713,154.693665313037,203.743291189854,132.976039992163,147.726246181902,154.635577672336,389.343263555274,248.06714638247,249.258296617083,215.774856038404,255.71582232786,272.149226261642,75.768587422393,156.635152865203,120.279714755039,141.054547488356,151.74834110056,165.719711642108,394.443861723518,449.764908747494,214.021139464062,249.53247715857,254.701743677123,261.964717224309,105.178877233816,195.981921779139,209.822205564506,122.329799497692,177.844324591754,166.271245259922,226.388025771077,154.068399804541,307.129416639187,217.83683419112,283.147820621095,328.822963233532,154.298677873862,164.206033343501,176.51583221395,228.268368096867,243.715427697909,232.793068798879,334.919127491016,201.235689029425,376.435425322321,261.037083457441,312.851165908275,302.626390117245,144.904908415371,132.988847875426,147.686790953754,176.574547981419,202.093895432453,168.355301582299,129.976497295126,261.765200876156,296.555797787952,291.251260241978,336.911321281379,319.085371521686,161.927126685571,204.345541921208,197.752976461585,227.290900263525,213.098293293927,212.660890097175,238.657902330528,339.276987825429,101.33437155228,324.177837372656,362.341885471952,341.622083219043,170.578939007588,185.370065356571,179.598896799988,205.247482244245,216.868196101317,211.223169026586,303.404365813515,236.368869546429,249.573501175816
,70.5,288.492934013095,213.390973365131,263.346911038389,203.394846316973,209.763166324552,195.273543754835,185.904992563615,195.13676701617,180.33317289919,173.378657664499,177.325564504789,257.774248200075,303.409490018328,243.959008961129,225.006596165484,198.873125181718,207.587958577758,265.41323498103,194.814280422637,197.10026854582,215.300493591693,404.170351279924,256.634698588091,260.293146656698,260.064321430223,302.637164430189,326.320617834997,111.307170146257,220.386586025894,150.710412780491,182.194283410152,235.450480394363,224.902135584445,405.608423769209,465.402787573465,221.587635574997,280.198438626254,309.743040206797,311.05442329654,185.490788370337,258.935532717003,268.460231408053,156.867186500982,229.918671814728,219.465326452915,232.856735804766,159.210304730252,318.799858502321,257.542305898331,330.849177196882,368.554152459469,234.300871122842,222.901203928119,239.153954074655,284.625996368876,297.015594030422,288.170691610539,346.885398332557,207.271933139513,392.216962317066,297.677822892244,348.568952833053,340.232911376022,196.590220249497,193.928149002157,207.120387105405,234.42198819141,265.058421054764,220.158159395547,134.718895254387,265.759127681328,303.685280735079,320.525307203034,360.377891168133,338.351587116212,211.044862613905,256.627525676657,251.29335569916,282.257581961049,266.554161155022,261.361865056159,244.681238544979,348.414490585336,105.667678126484,337.290930773116,378.423685564148,348.663202583551,210.867762961241,228.867086661027,219.126596559945,246.253244280428,258.410253148886,250.683286542971,309.648419894878,243.827288787781,256.311403785263
,71,336.470458651952,264.93660821234,322.520424850702,254.427788981301,267.355361752779,249.305143576132,238.478221832955,250.356356630432,238.895756016216,170.976246012715,169.953839472223,249.621913305638,348.970534005119,295.778763991536,311.234336724318,257.69297012584,256.947897674451,318.505252724852,259.775822908274,250.807756333822,280.821253968433,389.77922420611,246.871098996735,251.587117578357,302.208184977344,351.038190136932,379.079180274206,150.82261281203,280.936001084579,187.423623865041,211.611499309523,316.410990504633,288.222897140975,386.594305397846,448.355135195998,213.211583617512,319.988841176911,363.076259560242,357.374668052713,266.717092321603,319.377229831975,325.112144039682,192.090845597348,287.547255631445,272.621305794167,221.545659700088,152.105466954532,306.02600659902,303.528260564205,380.145280045078,413.533000478581,307.469688817886,282.475338315557,298.494219247603,323.105655631854,348.713616766714,342.998665735111,334.124796915458,197.94701606293,381.853310938312,343.423255580959,386.724316412191,381.525580935615,253.015148175805,257.348202294774,267.284894408528,292.087239746592,324.576626253014,273.262711573278,130.086820122292,250.916494329187,287.666955901727,347.644761707742,382.751059796344,355.892220856706,267.613125062514,311.287119084099,308.969189937381,336.231216214146,319.660547128305,309.93608732171,234.730584409705,332.933877503085,102.581007076013,344.959060947079,386.853491926792,346.407333188675,265.384568476177,283.883960185,268.518206094868,296.19698774562,306.077830903226,299.888243301878,293.866394963958,233.830504055895,245.417995331603
,71.5,375.550078063675,314.490043662124,376.25540404223,301.537305875657,325.055331494703,307.547124109253,290.553269223736,304.761127635029,293.574048473282,156.040559914028,153.425582297752,225.365776365799,386.18139457883,344.92052474071,387.183338836617,312.126457265837,301.741475288696,362.159649416089,318.185483034268,300.692884972202,336.538825327194,348.991895544801,222.423407918668,224.870869949691,328.645085241644,394.906078364927,422.348191371041,187.19199766184,335.011596355149,222.717881514737,238.676212091995,374.286824856864,345.643862338468,343.095277681882,401.162825333763,192.265907181563,362.829487521512,409.214778027207,395.411603050078,335.910831046666,371.537739712251,375.026424433724,224.902722797645,341.359438134518,322.14522836221,196.303309367233,136.287285606312,273.446947558482,349.605432889403,422.706917746955,458.474521947697,362.96192495021,337.334286115147,349.19870648021,338.298219727228,389.334639418857,388.435312694676,300.564802600562,177.508176871033,347.801919650297,389.764158643077,420.527597937813,417.95301385268,306.529060885439,314.098790161401,324.227971503617,344.412192094997,377.527294770065,320.043797552694,117.785491558613,221.859141769103,253.20656807067,373.402344554572,401.652912660247,371.772247557485,322.693473967788,360.957591425258,359.381662179325,382.818703162548,365.178972793514,354.358332508462,209.510101946225,296.993088342353,92.3021422446117,349.447739153064,385.620166235702,337.300974058287,316.92899873407,339.381144973044,316.833977890873,345.775275778987,353.323794573916,350.250775322445,260.266444219258,209.176039435819,218.94106278996
,72,401.190582601986,351.398978336754,417.591076087635,342.160941437257,371.717776601016,355.966045970781,335.850334269181,349.726306959368,338.96773605156,133.737429325444,133.499384039966,190.424116524759,414.736316462347,390.127053123043,438.093804644084,360.509234523286,339.579469825528,396.001161184708,365.708517860018,341.375852509791,383.440827667039,289.730938318072,187.492531174047,190.363485354417,340.153431521939,430.931491702124,454.295684833792,244.898647209181,379.405695704474,253.359781112802,257.04925606715,406.10550952389,390.466152578567,283.897437127857,334.759450400824,162.124833786229,402.693032971466,446.170550743407,424.171023068017,381.053904818312,413.319152306737,412.893837628595,275.519374621586,382.232193476406,366.959221553895,163.890822122395,115.962910278591,229.547432660707,391.56357137089,458.194767917414,488.900250309858,400.630318155467,381.54056945234,389.110664158847,347.903736693064,418.324472995131,425.488548403758,252.770598638703,150.202875647932,300.807222668878,425.976603422444,448.125388671174,448.960692075642,355.621062396439,359.659927595159,373.498402689801,387.968144860191,420.223268448066,354.723043998126,101.605831525855,183.224007641108,208.536234207089,392.551078478781,415.147673178127,383.935665597326,369.882763321441,400.959427786271,397.947349513812,420.726467520365,402.886619244366,391.865145234925,174.957361358945,247.27172232438,80.1453515284295,352.107269928834,376.430903421872,324.430102516454,358.578059611928,383.216550746554,360.71167070392,391.420413321999,395.841978661818,391.399112610183,217.618087646455,176.186824813627,182.01429225583
,72.5,415.646114761121,377.244786987583,447.643377814725,378.868207554912,404.530642715302,389.894725983592,371.828698341648,382.965676448501,381.844529973272,110.899078139054,114.176857020205,153.744294815272,430.002585697355,423.379563190786,463.352267423458,400.287721038776,367.705883887187,416.224442576,402.302403882597,367.979178219004,421.08024434768,225.02754553097,150.093856279198,155.23540067811,349.374740317114,457.657177521907,475.776050334621,315.606548919004,411.065081045093,297.38595966824,267.77575582339,429.787541303213,423.340742368786,221.629156048229,262.448192250835,130.429140991128,433.799525335451,470.462845385079,442.340741624967,411.395847552844,441.284502626938,439.426086272713,338.403593167041,412.45235416319,401.24616708148,130.422229581612,95.403854210739,182.130783538494,424.129713301424,484.250948410985,507.82730449069,429.051467187095,412.972379178667,417.962628747944,350.822551431192,436.661288598195,452.129415889619,200.355719000517,121.355849688192,253.188940145219,453.888510977929,468.507320172118,472.964169730961,396.027928077253,394.534426886924,409.144448474269,419.737358831135,447.444725634207,382.396024758134,85.9817160182155,143.415702216815,162.442508742506,403.446373482262,421.000673026856,390.041411484532,407.071215708957,427.207760293273,427.141725024761,447.83724631528,429.815823705458,420.857283754897,140.419013121176,194.200637101427,69.9324287814981,351.767816705233,365.151305669185,310.254024215487,392.961111946645,415.189289582097,395.058290954281,430.634361399283,431.306580067654,424.906238232689,173.791325018432,140.699823911928,144.968729584291
,73,422.931537389804,395.585597148649,467.145826319023,405.707905577081,424.781513184308,412.830007730571,400.805766146918,408.06811736849,413.71801995565,89.3421876752686,98.5243449997861,122.525471826479,438.515554988525,445.43543412393,477.041081184274,427.176189933645,377.080108130967,429.593403488388,426.095486719003,387.159447295165,442.648377392251,167.132386598834,118.999234965284,121.866539354785,355.725724735503,474.070723342202,488.780288812337,368.988602142849,433.932250033496,347.866566030938,298.256928957046,444.956094000517,444.465875492496,166.556193727477,195.633609649631,104.395463907178,456.117169288961,482.965135026387,453.763338898506,434.938649098967,460.07730206245,457.56614677746,388.529291696481,435.858828683364,425.91037586334,101.365408016984,78.7019876185677,139.853478214668,443.927933345472,499.697510434853,521.393885837381,449.393910610026,435.558877046754,438.103894930249,345.057457317287,443.475779865727,465.37604099387,152.839095076387,96.7477571999269,213.525971321891,474.636766508419,480.523556053528,488.094975093501,426.712712176081,419.394981261845,433.548537393201,442.025965336716,464.246623968234,404.475863580094,72.9082059151253,110.485220576489,123.592568569649,401.89096251077,421.630513117658,392.33289683434,434.657196713838,443.541263679531,448.629714677856,467.337775814918,445.002691966674,441.866535997425,110.237329387186,147.24803804875,61.795179659484,349.71724530443,353.559170989437,296.456813712749,415.035058101374,438.88532599813,419.266002061434,463.293343479749,459.500876760522,452.673121023553,135.850325404546,109.005597541647,113.403835478789
,73.5,426.83904605763,404.349062809418,474.828254103829,421.186293844151,437.848144471349,426.25600432906,424.427164838329,422.246906513437,432.656119993559,72.1150821041261,87.7193856091513,96.9578057342871,446.122869774378,460.742215906125,484.206887790072,444.850646394361,372.206174070362,442.549331370577,440.542969895713,390.074266521983,452.569255631937,121.215220115041,95.2584132464416,95.1937638990634,360.688253472862,482.09988026759,496.229990645405,413.602522964172,452.435615828599,386.150970733962,343.80077497168,451.655127034348,456.343767279745,122.694654915018,141.993518117078,83.7973337281148,470.992512817276,489.762060888669,460.325458774715,447.551068389761,474.419186237648,471.15026265451,428.640571455491,452.710472133912,446.409372816534,80.0026176410205,67.4876631169527,107.90648474615,457.382530989038,510.001498503899,526.99786682542,464.188716701847,450.116154975309,453.350374073141,364.066984404245,446.074862619066,475.272520113545,114.753401928008,78.3579552511624,187.05433407032,485.211282339885,485.83690836826,496.588875617449,449.986586775005,435.059870679976,454.019564245395,456.780332315805,476.081815189426,418.947934521159,62.233827341575,86.2070832900299,95.3584744759823,393.129575956396,419.417553587438,393.989198151441,452.252314158631,454.674660876266,462.222222995354,481.948749479045,456.052130870613,459.886719001211,85.7910598708735,109.914948238201,56.7400726478592,347.95663070169,341.832017075547,284.731118566282,425.199214959745,452.857334888242,435.067467446228,487.643640242687,481.918923229168,472.400263991172,107.337856785948,84.5647356136284,87.8616378145381
,74,427.095997968302,400.286135658631,478.166895868901,433.9799347461,445.235289743927,433.535132365686,442.775062869469,430.496051828545,447.183033454372,61.2322882658235,78.7297320577122,77.6518989497594,449.244365383094,469.959102639919,489.086395275807,455.443232878379,364.395787662067,453.612205746373,452.26675463556,372.858872278287,458.288819723048,88.308835596074,77.9209406968056,76.6423678020338,382.636956902536,486.979709049252,500.453384162725,451.783747149924,465.876756405416,420.123289365459,379.990942188719,455.85695463413,464.286221758857,90.6471313119941,102.206001411155,66.8722440174533,478.694601312549,492.869706217569,462.964871250357,456.232799311915,480.165059848993,479.285659053379,463.178608507609,461.601728805961,460.496142171938,65.4053658539979,59.2454760254027,85.0945123387966,466.276398628486,518.131108502792,525.595333619414,474.042869538854,458.630473626235,464.17712574543,405.350487022708,447.115159090033,484.898787821016,86.5970979089586,63.8515763450589,175.709590182006,490.208442563107,486.868825696634,501.155705721414,465.402307173541,445.79595193078,469.057694022199,465.952091683217,483.422052366775,429.7413820486,54.3165732171937,68.3768962933818,75.5040692851087,382.791109263994,414.852019620566,390.725804480493,462.068355213674,460.26839314059,471.219099448594,492.5309358837,465.135070247867,474.830343911678,68.2059533720915,81.8541512306324,53.5264224953185,344.226924785109,331.951244496261,275.97032953241,431.139501952467,459.253060389247,444.151171440778,504.218877335599,499.532766064613,485.910527487079,87.2081031694828,67.0555821638501,69.1256430055037
,74.5,426.464527036703,386.168535633507,480.65521654602,442.031613847411,451.782167217938,439.867483645709,452.079235459173,439.30968134918,460.425116745752,52.6395987317865,70.9198983977946,64.0111350827652,447.934580267987,473.761857968142,491.481171059652,460.247862438423,354.998994252289,462.411937718528,459.648110355429,354.478070366843,461.152139966079,67.031287819719,66.1226087484159,62.736762539329,415.150456673374,489.088376621769,501.836852117743,469.948556995383,474.430663005437,448.47543118357,413.778977355761,460.500630647127,468.083857156779,68.9948612003686,74.6797221184999,55.1130764260258,481.277403736147,493.425750584355,465.014597219699,464.913137496362,479.649608683068,483.769183344901,480.458858234256,467.107210561386,468.205649245268,54.0859653558541,52.431692582537,67.5339285297745,470.182412938394,519.952640716103,526.240162991305,481.148339095897,465.849474760307,471.669612002262,437.800190285611,446.035148206357,486.351121840166,66.6754613284634,52.5703264981966,174.691016319712,492.522136348895,483.360601184139,502.653517463853,474.970094208632,455.055200117306,477.641437831391,471.846968577799,490.445803874294,439.280210094507,47.5121487763478,55.4238816755046,60.8347641946768,370.965305071649,408.668273103374,384.090178910124,467.802021757005,463.80973125216,478.205058645948,499.107710587314,470.82484625453,482.815087351941,56.0346513432364,62.400520836895,49.5203465226192,337.448811857362,323.721212260815,267.905929627471,434.098328635016,463.252295939913,451.719812455027,514.895931999998,514.153008878248,496.513053708049,72.4198462138278,54.4629031110413,56.104673933902
,75,426.986834039304,371.238682120295,479.052027237804,442.154993650112,457.427568072693,442.474878422523,460.263497858203,447.779858799881,467.91284356785,44.406501218626,63.86564981453,52.7146791287964,446.999988959333,476.061662480933,491.757240515471,462.622769807399,346.803411889468,470.16844475222,463.217100369349,341.366475425405,462.355079333653,52.7097553964832,57.2685423450903,51.000907815662,437.710750934872,487.287955592019,501.260002615927,474.451409374336,482.041507575871,463.330154272263,441.872818010103,462.100989907012,466.398583144504,53.9931055171791,56.5878659977367,45.8124854887972,483.527732609189,492.143758525855,465.723887809278,468.190583979032,481.180611426881,485.672804713872,483.497451607584,472.856115514483,472.320085839974,45.0503809693942,46.3671464723118,54.0382748248658,472.733103970749,516.776656450344,525.268621838067,486.030044327888,470.08103671345,477.583270731512,465.234796171636,448.38484904922,485.422194398866,52.2664966946224,44.1791101815089,178.766042108744,491.266960371568,477.527869680482,501.271901470094,482.435501080824,462.532515042844,486.513540099326,475.614996350498,495.607951971267,442.452757242213,40.5895813699374,45.9245697383524,49.3414738417885,360.604067370354,402.984897175592,379.141660361773,470.317516318532,469.257566921099,481.613288338898,502.793976575555,475.178699347613,487.165193096952,46.1756170426153,48.6384580387977,44.2570722301917,329.566027829121,316.111830419196,259.822130803083,435.972771745728,467.066375348533,461.06531869127,524.160808939662,525.785452274214,506.397179797782,62.5619314176957,45.0085803665804,45.3765054887924
,75.5,424.758451071141,357.904849553643,475.736751446404,442.789017393189,460.125176519789,444.474262955538,469.320675918664,453.370412912145,470.947955129423,38.2015562396873,56.0533446360747,41.6465280390855,443.337620003903,476.862832460559,491.077888431761,467.187315927145,360.818444420856,476.390775109805,470.700107551017,326.627870119718,464.906549176055,41.9063374011904,49.2721727186704,41.6841694332202,456.536459986547,485.231768154411,498.372055994842,482.93555216323,490.015357626298,470.596353263601,453.772778673189,464.281013027732,464.827703349603,42.0314556361814,43.7260328555342,36.9042778706541,482.899320542048,489.10616579447,464.154522635411,468.10676383605,483.737592580019,486.451921375959,489.728079547386,475.043990057136,476.04362827217,38.6098109498328,40.1066279278427,43.7634976384365,474.041258314119,512.726051689825,518.794552366012,489.39597418417,471.350861817114,481.006633111755,491.700261210333,439.234200881346,486.378823770484,41.4137725881225,36.8746427188438,182.108006546733,488.77981780069,471.674012452152,499.035586480846,485.795685819834,469.612964467647,495.753106171509,473.448832675015,497.790409155432,441.708681142958,33.8576990063655,37.8216731536511,39.2750076490332,364.620021629245,397.19878854434,373.613891559441,469.777564993304,472.177505170856,482.638264878887,505.112031156182,479.7422254894,492.013067933939,37.3498986010948,37.8149387475708,38.2370384937016,321.195982028127,310.079282512394,252.449721861695,440.155021203439,470.970022480439,465.172722654532,528.036340779833,532.132655738646,512.949252577339,54.9511096629068,36.8802628541009,36.4719987962068
,76,420.033354943809,346.087709566759,474.201561424506,446.772114307461,460.0471420239,448.142444613391,474.655743435271,459.138715054822,475.609304991201,32.4374804891089,48.5131074835233,32.7895131326811,439.358790594111,476.606034659326,489.230792325176,473.802807302433,394.187096063331,480.54708140336,480.835612700191,336.35637124168,468.235368708434,34.0707729308571,42.7387047298785,34.6155804046289,474.398779770169,483.632449987746,493.581628999023,490.466417823924,497.346397454134,479.011677123048,455.484696497309,469.860708092253,465.923718028461,33.1259866520032,34.1913138359829,29.3310589341329,478.055589335195,486.239399918245,462.026715469695,471.913369954526,485.042423455738,485.946639771079,499.038882881672,475.733310765747,479.414043441988,32.5776317328587,33.9968027158823,34.8770986771262,471.511135648486,508.191475709683,512.291992236589,493.444907442988,473.552432478931,483.72447341854,502.083227562631,414.019325572287,485.284068289292,33.1662890438053,29.9852175232262,178.202115060207,486.910993844018,465.582348676727,496.074961469913,489.604404303574,479.3218668345,499.663569267075,473.159541553563,501.731043364745,441.831058421054,28.3569473870764,31.034581570003,30.3800607260447,377.800455537122,391.183255999434,365.377842881162,469.780668918708,473.024989042568,484.407884674188,504.44680553941,481.372954982546,492.549211980707,30.5984712855319,29.4003583467631,32.0279718944164,312.980805207502,304.643461981058,245.914524149074,444.815359620384,474.334202272089,468.615059405947,527.442160043325,534.028889409224,516.487006994767,48.3047436312113,30.5086910206544,29.6001828744085
,76.5,419.776050196245,348.019082006626,473.235250918768,449.757402648214,459.984360857211,449.634636667216,477.513996079277,464.725249654845,482.690483112878,27.0989635070022,43.1487793330975,26.5791354978775,436.908904108343,475.958683593651,485.540563999914,480.986601661493,426.859984621623,484.20980385167,490.790792033063,372.862432883185,471.951015539236,28.7318817342783,36.8479795097849,28.6761794102415,479.712128385664,480.511549640239,488.191860735026,497.312869128301,504.649833730763,484.797973990988,456.662661818485,472.43538285514,466.836794986202,27.2853185528975,28.6202503724581,23.5663722007596,474.504542036722,482.662766392734,459.238736785973,475.101149538191,490.407428368003,487.190492491092,506.884599497145,479.248343095194,484.984291003878,27.565431240928,28.4736966009945,26.7799935800441,466.152563142607,502.927450194396,506.124960859781,497.679629782528,477.305303639732,487.760256405217,498.963442005045,391.93626601428,481.285300634738,27.2984073435617,24.9336372130541,164.399266904421,483.574168364337,459.955079155302,491.413291563963,497.294552640962,488.235731555379,502.278136947871,477.05341276978,504.073684744406,441.143638583456,24.4707741538493,26.0876459767861,23.5615589075605,387.669756085059,385.255139466382,359.659649525514,470.299705368658,476.671018466108,486.558040566824,503.730881198197,481.061588832469,490.269580833017,25.9724468495832,23.8376737829237,27.1942323004539,305.896349313916,298.164656887049,239.242966700142,450.733224341036,476.18740253898,471.156001034863,524.836572079336,533.290771207644,519.021574580263,43.8867111945434,25.3370851749964,24.2115192946685
,77,419.878605272948,372.215067322228,469.115091723241,453.61319730983,460.262848964763,451.015588159527,485.284391982485,470.810372956822,490.078382882239,24.2757769456099,38.567241874034,22.4449020199468,434.24781673296,473.683105572539,480.230680230477,489.735757076965,459.037727250966,488.086878878831,503.598031387771,404.090938281439,474.790675184089,24.2467092452977,31.9316918995851,23.1115950977033,474.263788529243,477.251801878418,483.553977513304,505.570779869112,513.172618495954,490.773272630116,455.409716618171,472.071842795411,470.476591138418,23.0961918998196,24.8040260210211,19.5121586510279,471.019704877468,477.522812628936,454.138786157451,476.045729818389,499.033247523002,489.655280428691,511.7263430513,482.644869810087,491.364737019926,24.3422906357457,23.6718334894101,21.4205715843518,460.735012965498,498.699596546848,498.43200647977,503.045583213216,479.764281719547,491.354926695902,498.476246159813,370.924288923591,480.359948695422,22.6735360952246,21.6223305859967,141.360902764402,481.140227454582,454.763901134283,485.492714269638,503.5379027158,496.897965029294,509.547748869948,479.000642864598,502.231053458438,440.426283056894,21.6305283845361,22.9981276371589,19.7411989234237,397.143894631316,379.469573658816,355.043098807557,470.682850967846,479.363922465354,488.754740181721,505.053153546719,481.552923949691,492.602009185389,22.7694377085315,20.0963124142667,23.362311163037,298.920002629322,291.581360246267,233.907189279948,458.720126252441,479.94807601239,469.875957289589,522.221576572928,530.025791589316,520.297129406009,41.6491839928507,20.5435209473743,20.6398341700083
,77.5,417.342370919647,399.93936161989,465.228545124269,461.550376369554,460.985692508152,453.966627404787,491.422839561437,474.135886909121,495.474102127372,22.207733672882,34.0191240138352,19.0145795425931,431.987169875068,469.863567015181,474.18919313639,498.545125043387,486.161623535341,490.654531265246,518.709705368416,434.879234318882,476.583050358047,21.0051937269993,28.7824525956249,18.7225218141167,470.98529866857,474.890632941765,479.557451291041,512.302013019931,521.199386735201,496.2667862917,456.042922662535,474.33088634547,476.840444871535,20.169079686941,21.4756001636819,17.2962169309594,464.957315821659,474.006517846822,449.418868224706,480.759320249423,507.573293603331,492.630089982857,516.705329977851,483.223491212042,496.934259674546,22.2681868198817,20.1829112027488,19.2841792410935,453.907479324058,495.430013842797,490.431856909584,511.252589791525,483.12445040154,494.398950836261,497.316048897976,345.613503880373,481.716878386088,19.2447544705108,19.4298883664482,111.85919241541,478.035451829121,449.04389598679,479.898322193569,506.992972246943,505.281345333629,514.513356388575,477.95290640452,499.494729362979,439.620519082382,19.6294603709423,21.8123118638844,19.0053971739353,402.909256345993,373.176478046824,347.130399176456,471.765799500867,480.688338709618,492.656793916175,505.149434267863,480.647407530567,494.115673428732,20.6678462952035,17.3321772979994,20.8268799123069,293.436726281239,285.203891062064,228.804330704825,462.11510750175,483.404927518829,467.919471774102,516.139284826268,523.329625569101,517.940032596141,39.08680447961,17.0759182059618,18.7377931715026
,78,417.548981766978,421.718616691838,461.891125189307,471.939026843597,468.927580801031,457.391745199522,490.093866431865,475.377325914266,500.098173609677,20.2367072279573,31.2570970582211,16.98907756438,429.959123289148,464.722360473349,468.235279961106,506.067654915568,502.939291102805,491.911450717494,529.459451325089,465.429153665866,477.995434037763,19.4769360830086,25.7570530045693,16.7834487650913,467.028952711298,471.847020301879,477.53750895349,516.751647262829,526.736713132374,499.765515944875,456.709072678524,477.043185831259,479.662467708735,19.5007421913308,19.930900647642,15.8439494344257,462.729787469746,472.533348575173,445.702529634557,488.538056281169,517.912636994783,498.399116287862,520.359428247887,486.409783568328,499.043137657198,20.2471285058861,17.8185507239307,17.6282062579161,449.491406508679,491.854904239829,484.227527041528,520.025129261114,488.910333755645,500.684045929566,494.771481289205,351.99621622653,480.384255727548,17.4724358485518,17.9378031734445,80.8570134553694,472.777836286938,442.813639473444,473.78039677333,511.210466201691,512.064502970255,516.610762029963,481.101271338879,497.098654921031,439.808090972829,18.7269584031239,21.1747082613748,19.315382439307,401.486916540615,366.884509768577,340.62784415551,474.384426649252,485.44807876368,495.75079042184,502.127124254207,478.321830771841,492.229294390002,19.5759405606141,15.7092828745535,19.3231101045948,289.238934246877,277.4575852066,223.754768178477,463.1758885234,484.44836248365,468.465270719579,509.034109170633,517.119498565288,513.33501358081,36.7127137081178,15.8154989685945,17.3288854784565
,78.5,418.902435532725,444.250262854966,457.363286279065,485.214240531307,481.091588760979,463.110208616069,487.768222077966,477.255535311265,503.260856692252,19.896866289583,30.3107736461553,16.5119070273097,425.914285876537,460.26726627715,464.816124840143,512.557588079201,512.410311266895,494.280591713815,540.703306512272,480.838349065194,481.230244997692,18.8894167594217,22.9898416443356,14.8000908699889,460.556432417907,468.193571426204,475.925595501302,521.32038253116,532.335055178332,504.95549438484,456.329214674352,477.024551468189,479.200025816154,19.9331238983397,19.296640813422,15.5169040152763,463.462974561074,469.716621183818,442.319900423649,496.537156181951,532.798728711907,506.905271428139,522.076238264187,490.398465618611,499.057528180766,19.0657691968898,16.1407632194796,16.2323979679344,447.36851393976,487.671475938209,478.280323082387,527.877909151403,496.762704067063,508.778048419698,494.36624312113,387.917391217246,479.647052090127,16.2718376741184,16.8780290296149,54.9544259380788,467.505889961447,437.216763448684,467.650729637489,514.620207237377,517.076966042866,522.471081016586,481.794623190076,493.458978804822,440.334272786911,18.0086626899775,20.3264074900814,19.9884208663295,395.99363311985,360.808653603206,335.72034025218,477.94014945762,490.453314305049,498.189052843346,502.58611971825,479.042305352412,492.464548651609,18.5839865051744,15.465636914576,17.9696899432943,283.313071052083,270.050253463918,219.020640492163,466.323862830262,488.283475619273,469.750866621231,504.931209070289,511.82896115276,509.251869265609,35.5881777286622,15.0018995318796,16.0876731351739
,79,415.518724657903,459.375514106692,452.35889023149,504.310508694165,495.376995622378,473.18493326912,490.098524619739,476.810018331181,505.373724075194,20.0451858839851,29.9761200453632,15.5402788497415,421.948051388022,457.199118555646,462.804277702397,520.943838168616,520.367756968918,498.816984326965,555.332123920349,485.683412176818,486.909563466415,17.8037650182258,21.5683429077187,12.6648291212849,456.092433697654,465.045196793895,474.147469437478,527.38337983966,539.87673737363,510.446795800237,460.15697866042,479.783674266298,480.322843947854,19.4768802678708,18.6450851335428,16.0068353780069,459.8188379882,467.866271710981,439.622616370583,509.651865456947,553.462283249746,517.103182193203,527.226867834835,492.768933118188,500.237715613949,18.1538450033547,15.9310448569626,16.9056276873774,445.05281667565,482.845690628738,473.763326717165,538.567867641827,505.701674486764,517.946952434359,496.265455346121,417.201655001813,480.49520211251,15.1458552928043,16.8466112477704,35.9701406585284,461.359281392766,431.737875603387,463.823158866293,517.00026660558,522.435064289571,528.70690578312,476.926433145268,490.290749251866,439.033713707908,16.424083371849,19.7296670090312,20.6060963064219,390.829158067858,354.178454622237,328.808016738574,483.895764398878,494.476828479444,502.897595122923,502.528355391673,482.519177958327,493.991214438401,17.623316614209,14.9814140326334,16.8588439470493,276.550429600145,265.034589004886,213.987203296706,467.649880160104,495.04643758444,473.391692342827,503.796411983709,508.765500077976,505.267879229465,34.478500323436,14.2239541303858,15.2799735852469
,79.5,410.761168449316,459.630946870851,450.593217584341,530.254577360341,512.307429249595,482.446621124222,492.32360072245,473.0492721663,507.418016699395,20.1984758647596,29.7368351282157,13.8318951279587,418.327965350298,455.525164156044,461.569570697548,530.125875332817,529.400368472242,504.589164558444,569.458465242271,495.124628995414,492.774073124822,17.3940928162319,20.0928038446816,12.8756747228633,453.699056381105,462.696633989316,472.678749761153,533.995727095503,548.344511857588,514.947435293714,466.646059863099,487.337595917236,482.335890841501,18.5750849612849,18.1320908135411,15.935669533186,456.677237400171,467.428592663211,437.491452511919,526.01774821868,578.371433227672,528.518200824048,537.269419603362,497.523558989214,502.728100708131,17.696233259367,16.011693448203,17.4375703935816,443.571351983636,478.592349871959,468.746234927819,552.031237708461,516.3635627023,530.882320867239,497.653997603156,448.305795045282,481.440156093325,15.2852449268219,16.9149821984014,24.1132088258926,454.308630310451,426.74038838673,461.88556824915,521.473336808783,528.262481849355,531.851922418384,474.637580854206,489.442689311064,437.307814506254,15.549556946636,19.140983513669,20.3545597493412,384.254201187211,348.143584098494,321.161556131393,491.100725647516,501.912708515358,509.444207601236,499.474198674775,483.863819664068,493.674763069249,16.6119477856291,13.9732675173481,16.3433623238624,271.377329305515,260.813922422486,209.232629156049,470.257509069218,501.510660110454,480.082114767315,501.889801763955,508.411254673234,501.862052689982,32.9082599889178,14.5267881535673,14.3836133892238
,80,405.988033175764,455.243020110302,450.163139054871,559.430920271242,529.127544811623,494.92281351429,495.434963313326,471.422639522225,513.35373303803,20.4179635677202,30.1089000691396,13.8246612769768,413.494267368817,455.385469866925,462.13259492508,541.40022048102,543.50274947779,514.84744598818,585.338500339854,503.209642363991,499.591215624305,17.9909282277198,18.3457611134389,13.8811920888812,451.18771839494,458.632741641858,469.814851373829,543.376354406043,558.525251716991,521.496795225557,474.05196533993,495.754814170973,485.259740385334,17.7874880188422,17.9310162690963,15.4744191945771,455.494112579425,464.126672084931,435.635304183052,541.438177184886,605.682857061972,542.569797783739,552.117037735734,508.800036466781,508.414932512973,17.0724576812154,15.1166601404399,15.7638105795182,442.496183520525,475.595838366437,462.85072404575,567.112618180997,530.857853001958,547.531480072358,503.434356754434,482.488242889115,482.085781900517,15.7757661218851,16.3234654687585,18.8102129816892,450.722989431405,422.303280032535,459.963830766828,527.891376874453,535.071907797759,538.361184256401,473.756665179818,492.307534659745,440.143471403409,15.305024473992,17.5782269929678,19.1271371916517,379.297105566008,343.160986307937,316.754030432613,498.391871490311,509.659082003698,516.038177447962,498.855877319069,485.518698443008,494.515524207314,16.0630840051467,13.9840914666706,15.500181601595,265.88909611762,256.576378731396,205.66626586552,479.788262047995,510.192667742186,487.237826370269,500.070499130543,509.841491053956,499.410336392339,31.7901502309128,14.561340903682,13.070867504493
,80.5,400.479430893199,451.999220371464,448.777397461508,587.708950829478,540.11142182484,508.800937359281,507.171594148595,471.863587816665,526.101887470828,20.4590302632614,30.659147699299,14.2771360487371,408.546342055819,456.142122733387,462.302187482286,556.071322402791,556.410742347087,529.650397025471,607.079483929383,509.779035485383,507.397825472611,18.2652896735549,17.5518680704589,13.4494248684081,450.034870919417,453.951172284789,465.532128900869,557.059204238518,572.194285613502,531.692092198607,484.749954148619,504.963360117551,494.562356038538,16.9060913823778,18.1056074222943,15.2180252561816,450.677504114437,459.308315899485,433.999435135284,557.904539941643,633.349058223987,557.194132173873,575.923125074253,522.243902139426,521.550762730109,16.1192631666217,14.5696170941079,14.6433385667251,439.678274839941,472.364761303026,458.181738857985,588.128306280557,548.246258280011,566.504889555867,514.273317875015,498.737713096801,486.153469216746,15.7022657180972,15.9002358159114,17.5729697896755,448.354299804827,417.794075414382,456.640998995007,535.748571500859,545.999023309274,551.038721262041,473.128584484914,497.753388989353,442.329512157344,14.7237414484193,16.2732053296071,17.6077165099529,374.170936339534,338.04176846011,310.946400024563,505.566240024583,515.42526764004,523.636051279141,502.203254465471,490.860663530763,497.961509615446,16.0360266069471,14.0599167932788,15.2615865426766,258.896109201365,253.198050141157,201.818984490679,489.948680719972,521.479864375936,495.091437338141,500.483440420073,510.80065599061,498.887553656889,31.5785836596518,12.9598288323696,12.0727131496194
,81,394.651040339852,447.718435884098,448.304320396292,613.406816579761,548.391876156206,517.447513422755,525.144050578124,473.657228639415,543.647475618394,19.8995520819826,30.1428485357924,13.4328592758551,403.795853030726,456.388107366585,459.495182285502,575.031546339202,571.171788533266,547.466229039218,630.481640738681,518.731878799818,512.759807295034,17.8633875263678,16.7300131386451,13.8749261640803,450.173533539758,451.459931503845,462.137720014189,575.70101082848,589.097318033543,542.759109861521,500.602204786,521.110730035874,508.715392457529,15.9500653180669,18.0343243216962,14.5894916528495,444.623975114615,457.658675075354,432.562610960244,575.554503465092,662.594595609017,568.952973538027,608.665391077805,538.638447614167,543.219188026033,15.5644930796565,14.226519956091,14.3036422803605,436.200538968404,469.049609560962,453.169860449564,617.213868554474,569.635508508032,589.829487444279,525.365777113507,502.686777915987,491.698244842135,15.871286352608,16.3285406451881,17.6235509411965,444.764332736755,412.838886056857,453.653848930411,545.925590241659,561.56739770491,566.118362983114,477.073916550797,504.519340732598,442.618849422587,14.5097903954752,15.362192274501,15.9524365333813,367.737300663073,332.399093088574,303.849429608042,511.485237240398,522.537509667933,531.926185833605,505.540109208905,495.263408415366,501.917248275256,15.9617469650822,13.0911691623429,15.5803122488636,253.292833799944,249.221667690682,197.318861329249,499.353653087627,533.540951654116,501.847423591334,497.299389230037,510.706368804629,497.414535105081,31.2895666237936,11.2294656303284,12.0465685075708
,81.5,388.014703453922,444.797946651687,445.899955344801,633.788524273248,554.724578637626,521.530325339705,545.175204263413,479.905396362667,562.9797091756,19.25401730307,28.604818903062,12.6731306101652,398.155764165241,454.055906933072,453.737931250411,599.475116516146,595.155652611992,569.63818357116,654.122248491547,528.297578469514,517.398773420231,17.6369440367488,15.5572534908413,14.7490689651993,447.752331815266,449.576143391073,457.792546251165,598.501516824658,609.431698225617,556.584076391684,519.041582069055,541.689614341125,525.045508132248,15.5979204028193,17.328269651643,14.7388679129258,443.470634681124,454.743395335015,430.631113738338,593.848792985865,692.102416260211,581.569030875347,646.203028785877,561.287462539285,566.617133163672,15.2912786388605,12.9921630024022,12.6210631939564,435.651652164779,466.116016860444,446.707086295554,653.913184566176,597.381899597548,618.672619929201,539.852442782931,511.862750387712,497.28681929813,15.6834814590278,15.8921637180147,18.3854373465314,443.601461204781,406.641914766958,449.174221389219,556.52592731412,583.839153359664,584.534706406017,486.21341148602,515.183464130596,447.527553469374,14.6713702492041,14.1736681381849,14.4791031587539,361.487696054172,327.454582627321,298.957407219794,517.596808046587,530.471426646088,538.615531982206,509.798095041375,496.283739176463,505.165690611243,15.455499140995,12.5550521068775,14.8227702735234,249.137156280866,243.428824398033,193.599080892103,515.378721711164,548.372544798943,511.308363785683,492.340994839715,508.572727700484,492.924532512693,30.4064344140949,10.4273918084722,12.3028492296671
,82,379.992004984642,441.910380247829,440.287165886476,650.927912591636,558.640943504332,526.878195124771,565.942308166034,489.526478817279,587.544310543969,18.1988866085487,28.2474944399016,12.2964477934059,392.595953324848,450.847234558781,447.38236444966,633.83725872798,625.368291979068,598.231940630439,684.542145063121,538.160807254627,524.691780329408,17.4098434595522,15.281494247682,13.8927171322905,445.225864950715,446.341049576341,452.32535478197,625.056170102713,635.960429126632,576.200734097245,540.257227403088,563.439457764638,544.191632847646,16.1286158917536,16.4860586068826,15.1963006328625,441.796229832782,449.187164759568,428.310010575231,617.020608829234,724.722977460586,598.728801036619,689.5711384444,584.958673975425,593.097183279599,14.9154810163881,11.9495390823455,11.1830698007373,434.924409915144,462.087624496334,440.796678683547,702.583423928381,633.873751903669,654.775724424158,558.826780802317,518.639517934299,502.576407342255,14.7739897353804,15.215091853283,19.2616479209005,442.212456682052,399.931225307472,442.56825652315,569.711349075183,612.170712462059,607.563481713918,497.084912553678,527.667033033581,454.758727946035,14.3213922162229,13.1207201301971,13.7473448712948,356.509541948226,322.128049037852,294.844124069024,525.553081165232,536.839908766722,544.760138997436,516.92003292751,499.177112783065,508.931996907951,15.0564567099951,12.1230015847276,14.2148694180606,244.229605385392,237.722227161845,189.490405244422,535.007920544654,569.663628729894,523.14104668348,490.310962362892,503.444529880181,488.511722898716,29.4138279622327,9.4736184004247,12.1947629761835
,82.5,372.502009422985,439.593359069308,435.618192579547,671.787663893265,563.971998976819,529.930655348752,588.269746075277,500.60735080799,615.620673050031,17.3880327849809,28.8148073526461,11.7874366687881,388.118345141607,447.118608811208,441.671520264834,678.471714893715,662.539156095155,631.704724848747,722.194230860725,547.253357387192,533.441191942372,16.4382272832767,15.9045504154715,13.5219433386419,443.59542021639,445.983142662516,449.399163575014,656.19182773463,668.507618212267,599.207477135824,563.287008948585,588.31894064628,565.075702234406,16.7155869308642,15.6800125401617,16.4227638463481,437.787520207464,446.142347568307,425.376670847847,647.140059814755,764.139395756566,617.185348380619,734.012737633919,605.552676877685,621.55095733058,14.7386279425076,11.7223169060701,11.3498444717461,433.555067516424,457.578163990622,435.761394834505,765.396313574696,678.788138131723,699.5654989201,575.588989813258,523.686240245246,507.861992331506,13.7931563786636,15.0705864942271,19.0406178787262,436.744782174872,393.904150321494,436.410719746574,587.393626762901,645.246460267909,632.94078947153,511.930357111399,538.748921814122,460.327152241099,13.8137076375187,12.8627958144898,13.1494417446025,351.673852161118,316.687023928737,288.974516117062,534.767440232526,545.101408930268,552.951796716999,524.761388761654,503.681132958062,513.886023057917,15.0429990094908,10.9716988798406,14.5768849337892,239.051714587244,232.385059901898,184.973462007907,554.564263195177,597.772189192242,535.915001350296,489.279667622357,499.063037812723,484.896849154019,28.9300440332981,9.02012791628067,12.7020066838207
,83,349.998484975858,438.551147199148,431.050384847658,696.81050246276,572.601109358322,530.132365867728,610.050535569796,511.499114497887,644.215269215949,17.4739156851368,29.0938766744198,10.867636085399,374.757244849905,443.625092343385,436.843371177251,726.634190971206,708.764910206592,667.56273372024,766.390635136362,558.366844277696,541.399987595837,16.1946302406092,16.0752449474651,13.7560602228232,441.026878742033,447.378047117443,445.176010410317,690.247847851157,706.182476717916,624.136782521229,585.016460429218,613.292277560842,582.283855459873,16.356361667571,14.1404113408383,19.2085194217763,435.281173368811,443.771602749613,422.879653468281,683.195169869031,812.356249417145,636.446202971252,770.710887791653,624.143642271159,644.141020492728,14.7573801821158,11.4628525961691,11.0491329271149,433.183272896484,454.010443273313,430.13070669847,838.683832362728,728.562845825364,751.103027245154,592.927533069703,533.499029725655,518.644340871485,13.2474064329181,14.9674209070254,19.3065484231236,431.834711183486,388.861632616507,432.137301989244,605.599393179398,680.545677349655,657.14207844671,526.629440396025,550.512010651855,468.261158277148,13.4871343920167,12.64543074088,13.2427153626691,346.636516179807,313.340833980365,284.298647619188,544.760340054393,555.28351877013,562.851584147425,532.771971268812,506.433548078462,518.30296237096,15.0097898205304,10.3631655629623,14.5130083659699,235.972166825927,227.050322372187,180.608563058686,575.975942458714,626.7113102271,550.240714710816,485.812931701567,496.931135035337,480.232136031142,27.8786821543833,9.9905921290358,13.4486521807037
,83.5,315.272934099896,436.37257286053,425.85090118842,724.623046913859,579.517609707937,533.781465860581,625.482300217927,518.765204273206,668.735676763346,17.426036724414,28.7853869416203,11.3348448950831,354.242401547376,441.261661193863,433.078547306776,773.64688202694,753.889190209607,701.473881345858,811.220660810557,567.860650224671,550.189497260653,16.6839717693425,16.3785449976597,12.2971757487712,439.46709670132,446.902127186292,440.957938239133,722.370141922564,744.300597650881,649.574181646306,599.996423322279,629.817616191821,594.282027892523,15.6901483611191,12.887698090768,21.6595619381166,433.520081276793,439.416826472368,421.385519600738,719.454144868088,860.951551728092,656.823221692705,796.260952397947,636.249629793516,657.710562778961,14.1095246553909,11.0508917782105,10.7921515588101,433.925342228074,452.286117582342,425.778543232627,912.94571392372,776.068091498068,800.71152696487,620.768686154833,549.115187913912,534.090467440271,12.7255284283625,14.0928103246621,19.7162993847172,429.965525037883,384.620533115787,429.640096345548,622.631915235272,712.771149292824,677.17385878099,543.388854483219,569.548529496793,482.498127184268,13.2537882296466,12.2765526705895,13.8490487660324,342.556671242606,312.297226604941,280.934149735954,555.524068732036,563.604708505881,571.962685336669,544.180301647962,513.642507913129,527.165142024806,15.3293475783286,10.4482571248321,14.4222120736664,233.86605421543,222.796510528933,176.858650534271,595.71605698137,651.390898467726,565.071848071228,488.741678784906,497.707866542804,480.175143435737,26.8121952447419,10.9567076639984,12.9832569603014
,84,290.04362809838,431.709564364876,424.088060725236,752.290467622286,584.187994505497,540.616376579831,634.194070662957,523.73542885407,687.026310940879,16.5681050019996,29.1665443866857,12.4671296024329,337.157886216748,441.190394317677,433.916511545892,816.333936020456,794.11695391664,733.086044220622,847.986780578749,573.100682096984,558.919608894344,17.1180822859742,17.2642310865639,11.0345768985198,440.401833460766,446.513201452066,440.220921909513,751.127210500701,780.167199456397,674.396971089089,605.93562606365,637.992762348386,602.047379157729,15.0360926358356,12.0614513954405,23.0099151293971,429.871593821466,437.591665082082,420.86219003071,748.650414685293,899.029065548257,672.083797025477,809.922284635157,642.280437490258,667.083827230397,13.2869288170668,10.6067531196506,10.9335839173506,434.478708028277,453.342436172468,422.713137038837,975.995557801694,815.125903875748,839.471750195652,651.336137182686,566.996142026695,552.480489306096,12.7119083520895,12.9757496110944,19.8140699832472,428.939595044487,382.891349101288,429.106875396796,642.454709109984,738.006150911433,696.896822651005,569.477888221785,598.635813593917,501.981230095332,13.2977035795828,11.8436819964446,14.5178296946002,340.152636001077,312.326549225014,277.047994929378,565.392624023285,571.134565693734,580.993274086974,567.942026744337,534.626446806505,548.086954167936,16.3039699217306,10.0557744397821,15.3118056282316,231.773013666131,220.233011449292,173.350872482421,610.799829454347,669.88343142003,576.1716950169,501.211577766812,506.940485627643,492.68269368071,26.6003258544964,10.7620033999872,12.7441042207523
,84.5,272.336892719158,431.93831271303,426.261867456921,778.585491957456,595.767409775888,552.229844082855,647.996349498995,534.255381752225,707.446993792678,15.7535376610703,28.6529315307693,12.3517234471419,323.449707753142,443.012055623938,437.986419365635,855.906787363441,836.97249002186,770.080928048724,876.352049995139,581.806229987915,571.374458462255,17.8469142807417,17.7220367114711,10.8603927636,443.313405613218,448.211181797255,442.559662946599,787.649252215582,821.856756534631,705.852511188925,609.87852691569,646.106314211643,608.866465811384,13.6240674555241,11.9551922915335,23.5602909604986,429.250496131132,440.809147508007,422.999761403989,776.332593890194,930.6135069337,687.951506744134,817.382331409675,653.713473115935,676.586587580475,12.8971028400492,10.6926892367321,10.4420290347285,438.112015718851,458.148992251803,422.942855897695,1024.21720184697,844.886855428172,867.762641192061,678.715055876313,588.518460124966,574.479126148681,12.836746979257,12.2571932532375,19.7441744401493,431.334445874734,385.225745874926,432.651253130482,671.936246829461,766.928285483426,726.490310590396,602.524160767459,635.061749170077,524.155954580902,13.2751102750029,11.1838311311412,14.796189453086,339.31443211126,314.715568204048,275.116505577464,582.656950790549,587.355183384548,599.230730527726,610.900804490039,574.577881143139,584.870310743138,16.8904754673091,10.1940776213315,15.3658458611399,231.19489532513,218.713038786934,170.984822356893,623.455557839981,681.36695836219,587.029670532138,533.682992519963,540.852598687148,527.03313620518,26.7227785471567,10.4871755590758,13.0264224143968
,85,261.531589932409,437.558400452682,428.698055378625,825.991000979053,627.101985625398,583.094231662556,682.398964743498,557.223101951558,746.132056837075,15.4765641737421,26.4160912089852,10.4375079052456,315.064013351937,448.295081118723,443.372488852197,909.952073523005,897.582647966011,825.084083378469,914.389576513454,603.501828190463,594.360665745516,19.1854976276752,17.3561824466778,10.1206355549612,449.574410216813,453.319826565758,446.710672435233,858.03655033828,895.02749013397,765.883062660421,619.879666414379,661.743420863221,621.522579942829,12.5124463774251,12.408744937505,22.4840597245661,435.191439239627,447.777003634133,431.001176707254,826.952113974411,984.460670519198,728.383515900786,842.676947428792,678.085603445184,698.292040372028,12.8321680159573,11.2697883228236,10.1308163614851,448.417390922017,467.616473431606,429.98107961246,1069.84812275211,881.80487366286,900.440432509703,711.678012314808,615.133797551235,597.275876353488,12.701215023415,11.8160682098211,20.0455811438172,441.704326546662,392.334968290965,442.070403273418,727.704473565908,832.394131458025,787.059466620541,636.166579491007,676.138287342319,547.872801574051,12.9680267515273,10.6115153887989,15.1317689944508,341.445671066372,320.174913359088,276.156772953037,617.055953869676,620.10933664812,635.887618914348,696.715520091464,658.427405582932,657.40826043187,16.5248468437903,10.433257489899,15.1359562553293,232.826535208862,218.864318303243,170.314421341653,641.81322156587,696.22061089985,604.796690433827,613.51675628698,620.642349993676,604.257964419746,26.5503206422828,10.1418504500252,12.1241779796508
,85.5,289.652859001931,446.379767125831,438.577189478704,909.912733953222,677.054673178313,631.374243043158,736.804495209728,590.934219000532,799.264661368663,14.7876784617677,24.7871500984892,9.60232305885393,334.733927843832,459.597454079244,455.19018464819,988.667944495507,980.759729689551,899.895519188894,965.178785589841,635.38395957167,625.140565607953,19.2943325346515,17.2537440464015,11.9378015837573,462.445243931059,464.980378028115,460.243208106838,965.243423541726,1003.37827105812,850.922283573375,635.547281041663,684.283030862446,641.604250906611,12.6215241184414,12.6126150548286,19.9291965125232,447.500588072641,463.510407821981,446.276917511223,902.644664066557,1071.60115167655,790.248950123986,890.146785954896,710.911745921196,731.471945965558,12.6409122225685,11.1504820199445,10.4995039372091,466.998144762673,486.587475686471,444.430186625494,1124.48907227032,936.28626573948,942.728778407558,745.305286960067,636.058156408738,610.391160249999,12.557528587493,11.2011166361092,20.0820821366046,460.940039033723,405.703923057068,460.452527917657,808.928910248094,938.344272608933,877.717104544457,670.501218461333,718.464078249166,572.521089313849,12.5721236132262,10.3256965010896,14.9878259520611,349.068041139004,327.630422028194,281.363151364247,663.607633096926,664.149859818531,685.08068739715,860.072759813632,819.292200376927,790.99566987372,15.8373717714176,9.71015808319407,15.1346023417871,236.009048285361,222.231182571849,172.715525848772,671.9615330565,723.877783266807,628.567823338497,741.284315742758,744.251306500673,724.826380961498,26.5901882791684,9.2100751918133,10.9516761881043
,86,354.172630055158,465.636154838808,458.521963883362,1024.08609471886,748.892328401487,692.819316395012,801.563752692714,632.653777034597,859.125404704728,14.3553366310312,24.8581572189868,9.31554624950491,381.496460994782,479.756612518323,479.113093087469,1097.73719061905,1093.36049677214,1004.50804506168,1026.54863178282,678.514843324191,665.704780872221,18.6768647037966,17.2543636935219,17.1032273598206,485.386767634431,488.55365422109,486.162621608122,1095.75441004514,1134.45416127436,950.593297181916,660.556025545315,717.927395415474,672.264284811531,13.1173299596012,12.2722444914593,17.6072846419819,471.058611286947,490.872134758021,471.278049767319,1002.7629853943,1185.2153374744,868.592904451262,943.370205189294,751.363105745419,767.634213803387,13.0672609560621,10.5679551356981,10.156207268538,497.744319937742,521.447980011668,470.868698507998,1184.1539564963,1004.12925828029,995.224715325783,760.462863673483,642.904116426907,614.387894166392,12.6998072583888,10.5490482796455,19.4147293915242,492.375082598493,430.961505660534,491.737504323497,906.085889041001,1072.97832080047,989.625097121325,699.661018564374,749.456151696834,591.351894146727,11.8747871091385,10.2422620899106,14.32864075686,365.969529006394,340.998548216116,294.239677792344,722.223590640519,721.845169961179,748.549805658262,1087.25053286164,1042.03548192984,966.963835927314,14.9360341573744,8.75549467766564,14.1833691513532,242.958414415172,231.374434031916,179.873004541085,727.656982437603,777.233696212158,667.010071063723,888.819453823323,889.896646362305,861.404770567487,28.0347940462466,8.23517753087754,10.8237330294698
,86.5,426.902571065401,505.44000785985,491.082913150549,1178.92363283688,842.933129059499,770.534134968978,871.606835408131,680.072594289522,926.633739104098,14.6608843999037,24.5928211210198,7.96823648198631,442.273471189871,516.355983757546,517.714832509138,1240.45181143576,1239.57598672692,1136.91799738917,1111.96356184622,734.245020783187,715.372337308135,18.6167373140556,16.653153317049,21.2480489577725,526.710217501058,530.123997128966,529.659642016838,1241.37700270731,1281.74724158065,1062.02692121662,696.674382182868,762.98778250195,710.107778181421,13.6080598903012,12.0097405737806,15.33996128788,511.971630784066,534.939322687128,514.457550517047,1135.29655164079,1333.45946081427,967.021543934026,997.572158307489,795.445277848544,806.19173300607,13.7452303853281,10.8065051671352,9.78589665395361,547.247461022909,577.792424124551,518.285987090893,1255.4625362487,1091.32078475716,1072.31645327694,763.742728327575,647.608859116006,619.80920798464,12.4303132542224,11.0581853711228,18.1530928263795,543.529910559516,473.176702036748,543.296868281675,1010.75340609154,1227.64152886643,1111.25768134813,710.356602677824,758.708531857019,597.651843483448,11.2408799350793,10.4662820776043,13.4093763480515,396.943772759971,367.117676984372,318.0288300961,790.137230468514,788.788208202777,824.559893478865,1325.25648023128,1277.06959235613,1146.82408536537,14.1241398072871,8.23417870373146,12.8773082337674,257.489302619999,248.223804862356,193.203149497975,799.997787123869,853.678292492625,716.344651903097,1037.6177129803,1038.79746070845,996.066057297411,31.9456444256127,7.61380149859019,10.1387846923448
,87,521.167702889488,566.905081308539,547.794549485836,1344.42989484362,933.633100021614,847.111696061907,935.307214145644,727.773544056581,984.689459043843,14.488284491791,24.5265547054324,8.51714951423412,528.532514365765,576.750832545433,578.465888332528,1379.20807530463,1382.4334027299,1257.7700755821,1200.55350552923,795.173211872957,770.537335443047,17.7095079991494,15.8990383900788,24.8475374109751,593.454097083859,596.668813470702,599.179540587981,1367.48601882256,1409.09062651173,1157.52638014123,739.929713455488,811.179372744452,754.784219014729,14.7680434891651,11.0304148271748,13.9245216584561,575.875657793009,605.674064968785,585.095103001119,1268.34860288339,1483.88996700399,1064.96786027346,1044.79521063219,836.428039084305,844.608062500932,13.5554975709217,10.527451574958,10.2613912018568,623.708954301662,665.414386298198,597.735816056502,1328.07251263302,1188.15827511545,1162.67437063892,796.214314266752,689.468109405328,663.162016519495,11.9575984310511,11.6789101538847,17.3348863787002,625.978787590676,541.648240199125,625.391085262394,1098.08261545376,1363.07860056032,1212.52599238995,720.438506226892,765.632783129213,609.023753082533,11.3501577454335,11.0480923916416,12.048633346984,452.595363658351,413.882203582704,361.395118940927,856.006548679291,851.122346926243,898.597185601938,1543.41504871549,1489.90642755723,1311.81282498107,13.9621758122465,7.89739106945513,12.5689546222344,288.249426002473,280.129292963509,218.579978972507,872.138818842271,934.638281771465,764.426408272647,1176.22144952332,1174.29699694998,1120.62551215604,36.7886562741105,7.64983024204571,9.75348620278135
,87.5,630.158468289899,640.640653121963,622.011683332141,1441.93103241992,1000.33657045972,905.420515393741,970.678272803828,780.104161266712,1009.04584643475,13.8443622579351,26.8872831540139,13.462445930143,629.542329666625,652.588108954777,657.778309935312,1464.67567808541,1473.76372237784,1337.16590788686,1241.50909981669,869.938972522488,843.766959457113,16.6588528350129,15.1512245059454,29.3397908312051,678.563814993917,679.560593422987,688.028002178896,1412.73969326489,1454.86416993703,1194.25377201636,797.143126205187,868.071958300462,821.937831576229,15.7531276092723,9.42981243743782,13.6168299304916,656.631421451992,696.10516868095,673.596566650565,1345.55450976373,1556.63108962096,1132.80374639415,1053.79545120736,880.868024396365,880.788645450444,12.9940374530039,9.29291713298119,10.2419791432538,720.06037605039,773.453279692725,695.78726712373,1354.80805033079,1252.64748043364,1226.15276492009,897.658252309923,793.334384995533,772.479023353543,12.4423513936645,11.7623382529645,16.9759953941564,727.498305357111,627.447242141449,726.204350913172,1136.8074465022,1410.83408194831,1252.48003043996,763.653817342356,807.05356988001,655.490871897365,11.8194097252432,11.3802845755714,10.9727738946557,525.007128067062,474.063060599673,421.991908178909,925.301587541859,911.701396466813,970.855889681498,1689.51956976139,1626.39988609318,1420.5228105839,14.0967250517984,8.20917484693496,11.6021591225807,331.903703243597,323.519851014194,253.139682752448,935.197168650895,1000.82425275623,807.252511893269,1265.05714325498,1260.09561627344,1204.058332102,41.0242480818418,8.01869703760747,10.6802176597519
,88,731.059006992324,730.217163673238,705.199505199994,1454.44228097258,1053.99257821701,957.097196680171,1009.05259454538,890.509169200273,1040.6626666244,13.7155581705657,29.8750221325188,19.1324489358316,733.680185045794,743.908608298332,752.982185305636,1490.41924480951,1505.45850407745,1379.04697093748,1239.276400842,1023.21077691006,1011.46715944229,16.1009607709399,14.2788308278019,28.9523998714683,781.623992711394,780.444150137845,794.19113375919,1371.86833319609,1414.91327876647,1185.01243939041,931.556470722207,1002.99855654835,983.647362133417,16.0459322604144,9.06310155116557,13.2383820344841,753.314677599281,802.495884427507,774.893921390471,1375.61418675431,1525.03414250807,1209.08758927109,1058.39479361858,1000.20604900348,984.465377331022,13.0992812354685,8.64728748630182,10.1666535050852,831.132090013178,884.875235392203,794.920145943269,1312.60388137657,1283.59630589735,1264.32510340478,1063.89297942356,999.329820466756,1006.41497660625,12.6018792228141,12.1747187556573,15.5270335572324,832.407373453794,711.955492267211,829.741122903172,1146.44516274641,1365.46858715101,1244.4573775497,897.353303613762,949.177678463058,772.750293504786,11.9926154777141,11.1339173018757,10.3137320184117,595.261888072772,534.121870189624,482.373378152972,1064.32127809463,1034.57331025393,1109.54378571221,1693.69637520496,1622.78508638802,1429.38625439295,14.7204071699114,8.9330277228064,10.4424383540298,376.42236534272,365.160181520634,285.71631489136,981.17369045798,1045.79773508444,847.1468039843,1306.55522975298,1300.07604635116,1244.51121776085,45.4496200688975,8.39499075019023,11.6547340535069
,88.5,850.616032888972,862.066647070241,830.927294789571,1390.22172165129,1093.38230465512,1004.76423759222,1110.89006350912,1079.0290182585,1128.54519595033,12.8641236973854,31.7440932358874,22.9568380749398,880.181196354526,889.606049122098,900.14349610003,1437.52930282694,1461.0560511496,1359.07142023476,1220.18990782763,1264.01369968223,1271.44949044191,15.2101289717582,13.1130798226841,24.4429330806739,934.484408069029,940.995312493689,949.850724546369,1273.59628404961,1315.8134536953,1151.00961725971,1152.28877533616,1222.54833131888,1228.96629837025,16.076491586791,9.16692032345657,12.3481867542647,895.377226879477,960.609183707824,920.983313074431,1371.89595166155,1409.15382523635,1313.56224671385,1123.41442699505,1222.12635487028,1187.98609614013,13.3177831193395,9.1160743995523,10.4125888500088,983.845481380888,1012.82840482958,902.518648863087,1220.42241312957,1294.70661787235,1287.6599340064,1348.56434648201,1374.49572598685,1429.47816576681,11.9010044225399,13.1502643079732,14.4471291570856,957.819525997471,799.369065178827,950.120483073716,1150.22903414829,1255.41710017905,1213.18139497326,1123.036581278,1188.81370463352,980.278485657253,12.3369068770526,11.0992990482962,9.86750869397315,664.233951933317,595.334484211334,538.875531008641,1272.28225577473,1224.28068825399,1318.38179919658,1575.47285969855,1495.48519422646,1368.28286826416,15.181669280042,9.33551161502555,10.8331058956876,417.968496808881,404.465643936363,314.34858093141,1001.36331712658,1061.1321538301,887.758202058457,1334.44612019165,1325.44928042067,1272.58450137703,47.0023556173358,9.035206841893,12.2892648774975
,89,1125.26924338272,1160.67874544447,1138.73355704826,1227.95261344127,1153.84617846996,1083.77244419303,1238.66148234511,1307.2731366023,1230.66341496819,12.0155082933949,33.5763359408013,28.0195443242566,1196.60280656772,1207.24846762621,1229.78270738231,1292.15121067472,1322.97635389743,1279.35363035864,1151.90529186036,1528.20734355843,1557.59875135962,14.0937858344357,11.7152449479019,21.5412550413796,1242.0123587795,1277.27634724997,1259.79241386117,1128.88061782976,1165.11998250244,1099.55133856796,1402.92806379374,1463.12587990639,1506.82790208696,16.3548197573455,9.36783131258358,11.683258430387,1167.93034254533,1262.31969040526,1193.95839672849,1305.81958661202,1205.23555935731,1418.02520635847,1207.0795284752,1467.23016442247,1411.02107439499,12.6282049602237,9.35798185861245,10.7553271078663,1244.74926209464,1217.84052764039,1055.9939080336,1078.52542758255,1266.71273625357,1271.31724582363,1711.55800455686,1821.36813863613,1922.20054381267,11.3862940557617,13.2577014977802,14.0454592383081,1149.81631873339,921.616635307241,1127.26741791385,1177.61502668229,1094.17479923403,1176.74204475472,1447.04149496562,1512.13671902753,1318.99007380386,12.6827641908473,11.0670318562677,9.34491967472411,756.321025307203,672.933613211383,607.217762030982,1512.15403717403,1439.56690410614,1552.8441947929,1428.18313960893,1331.28697456338,1316.29783902408,14.9144785489181,9.86222643641781,11.0225764514446,465.798144653613,452.392407099726,349.180842638637,1066.35678445369,1108.82332468487,1017.33222536185,1348.32231100209,1334.56072173447,1290.36001612949,41.9407900989008,9.84624826606773,12.6572169327819
,89.5,1555.18927465785,1605.96977101866,1606.39249775304,1018.7340870749,1295.79122288835,1248.23727917432,1344.90437975606,1554.84842060492,1312.76849520835,11.9134952330213,34.6813223348806,32.2176632716862,1634.41529631408,1640.9002109535,1692.45075495962,1110.31129367012,1140.42017174052,1194.51418142878,1041.17112152786,1776.2350813682,1835.81137186662,13.1941313808095,10.5629158809835,18.9390667378999,1666.13366969733,1730.23623415921,1667.13775434671,967.773230512008,999.657656126725,1055.00589042261,1651.81577069611,1695.50898070878,1794.01404225076,16.0067427484503,10.1943778900869,10.6238484778894,1526.7248528156,1644.97852956626,1527.61170309116,1200.47139100626,954.561836798406,1521.05133636518,1262.23418609261,1685.53845071669,1604.59495162828,11.977243262867,8.99366527446421,11.2291593975228,1557.1380902256,1447.90188437127,1205.15746123135,898.017244223728,1213.30847595619,1227.60280855895,1989.50410896749,2163.35760505635,2307.81096832452,11.2553714145604,12.120680845124,13.5339235533684,1348.32722041896,1030.33824248038,1297.49394346665,1245.74014673693,920.803959759137,1159.04702019748,1814.67674126092,1865.28349295006,1710.93157885958,11.9407386434748,10.5982688599926,9.27552088374489,834.643455755122,730.288889109046,653.75827194523,1764.53329879811,1661.90236030509,1793.68141062907,1303.41127812572,1191.01462311254,1308.84368870014,14.6941533432131,10.0363730023229,10.4579044657029,496.978457115126,483.991392192791,371.254003061309,1209.72493760375,1235.37527372934,1264.67380726088,1328.59040586715,1310.35150545224,1278.48128257611,34.235909773388,10.1741889344756,13.0539282811783
,90,1985.86841372517,2037.97502754792,2065.92829041185,828.216434005262,1449.18342141001,1423.7062007347,1422.17090355339,1761.91510612165,1367.85233147155,10.8874481876115,31.9192824074782,30.4476618133817,2040.9225926905,2036.03547494223,2119.95455379527,922.561644174998,945.895263608542,1095.27290840501,925.276739526958,1944.70821752869,2029.86085620035,11.8331442826435,9.30636023023385,14.8368150362278,2059.63084371806,2142.5906017744,2027.74867377781,817.03604276546,850.542473454226,1011.97155973145,1841.3515778497,1863.96698270821,2005.84269297153,15.0989810853567,10.6615013329451,9.4873642347543,1848.43842732164,1977.79757115645,1804.15217623953,1082.79920483429,721.172053883158,1587.61853514046,1293.52403248404,1838.96231661503,1736.96211991624,11.7243104728252,9.13195534477711,11.6777575126648,1815.03052212898,1617.36388100437,1293.33532144535,720.395047315383,1148.13874818492,1170.46156724221,2092.2210041585,2351.19630184412,2539.55017579682,10.4591156487229,11.2183070785824,13.2081317464532,1482.28285611369,1079.76299193808,1398.23324530216,1309.47795007929,767.548784266851,1142.19992837958,2096.35238544608,2122.98432449699,2011.14232923472,11.1920133165052,10.1140494676658,9.42545102409008,865.118100511004,742.348138263242,651.406165668228,1947.23162748683,1824.92980515891,1968.52091450308,1200.48706978269,1077.82140917156,1319.04015312734,14.411861976649,9.6831560343046,10.5681717077821,493.404515909262,483.169017575779,367.115773372893,1348.05440158032,1366.92962592526,1516.65789261038,1278.4120208164,1253.32964162421,1235.20675446107,27.3256593459689,9.91607964443654,13.4671784793643
,90.5,2356.61632933315,2405.87066957737,2468.07795152979,644.805238289795,1537.33129257973,1535.48350627758,1400.43846246332,1801.34148577685,1320.42762890659,9.20827920655347,26.1800068277817,25.5694852403121,2379.84343351198,2362.4580575488,2476.83067398131,721.772619908219,737.332676829809,960.075536760074,782.199880516012,1898.04651232352,1986.29508481089,10.9645505470999,8.44696322372022,13.1398468959488,2377.75800453852,2477.51292692507,2313.86521130027,674.64431395219,709.365113264468,941.315609691913,1833.83506293567,1828.41579656222,1985.42163776167,14.0925221185215,10.486766184986,9.07331455162137,2099.1884544128,2235.37074143699,2014.6517860627,924.709612828478,518.226947589192,1533.30432364682,1233.33090211173,1787.90198013673,1677.75706463194,10.9833363253781,9.63823129697982,11.1538403129975,1998.3959042828,1732.35069108506,1341.20305605308,554.72522416489,1035.72421648439,1064.44098810453,2027.59622307721,2317.78556838806,2508.15002103003,9.79194405705107,10.6987863036455,13.4054566236539,1564.84950770363,1097.59163549069,1449.39342730193,1321.15847086925,630.757874047785,1091.49836312595,2175.09809698093,2155.20420307946,2151.30747015601,11.8208284503305,10.3057488313849,9.29699855496096,872.282867793607,733.475753524837,628.110576276579,1925.4567212184,1800.70249384176,1939.9032322486,1121.02873495029,989.764961133204,1322.32126590088,13.5393238108281,9.75559050384697,11.0637216610264,473.781772588469,470.338187243391,354.315349451939,1450.4136080276,1462.88067768815,1720.65033345236,1191.49273912952,1157.09991186781,1162.44091580691,19.9247968347541,9.45935916870633,13.1049119332612
,91,2616.08264770037,2644.71623223421,2741.25999291864,479.705140351637,1570.07132187629,1588.72196026043,1203.34887579261,1646.74650935075,1114.33831626286,9.29684825664356,21.1791440623937,21.4856755814226,2571.53002410638,2534.34544517301,2679.60503266876,541.862669227494,547.984149110573,823.351992483699,591.337462434986,1620.90015125533,1707.85121161732,10.5756725005797,8.28636232117469,13.6934182895478,2547.13058329089,2642.72411183247,2448.49661610501,538.524033741873,573.216959297939,839.854614149923,1611.41913897377,1576.10894091948,1750.48495506674,13.0051086480527,10.8493451025322,9.8145530114341,2209.10245410564,2338.87485433115,2087.94435213631,722.376787689891,349.535784616818,1344.58575304035,1012.36975395239,1494.35334755048,1390.38486000759,9.43231925719385,9.59407009724339,10.8677321639962,2041.66261397175,1746.66449610864,1319.3314005393,403.091539246378,879.494382922616,910.782889204203,1713.42396411477,1938.16478095522,2084.39487018692,9.81005991859831,10.0393634283498,12.9947647436064,1549.07340576533,1060.09478819677,1408.12824849895,1266.99553234633,503.852529919963,996.600081234633,2051.40120702036,1979.02252965755,2097.9995564876,12.305240573242,10.5144379608498,9.1324163903214,841.930166454399,689.166368125909,580.981153893468,1706.24010086816,1584.13343246877,1705.71272510665,1054.90587295991,923.904744810271,1296.92349224825,13.3780357705728,10.3749042028545,10.4733253332968,439.190024057352,438.852205516825,331.27732595395,1506.77510260333,1518.77301360187,1854.81939887293,1053.61911819643,1012.72015318255,1051.28590214546,13.3612113649889,9.11546614626218,13.1358140248582
,91.5,2503.03443684916,2479.11487295765,2590.82634767927,358.836714236832,1475.35256380264,1502.74438212157,918.625463275247,1373.56159109974,840.249785880351,9.20239421850454,16.3864328731961,16.160148068351,2356.14712374177,2294.52705633663,2450.90092243034,401.745719872809,398.122022170238,677.391869999159,406.432642626971,1240.38280216476,1322.00393935843,10.0464260619009,8.03851327132907,13.1390629244316,2332.89008107692,2385.15873670959,2198.4800377363,412.101003287462,446.825396933751,701.489333974907,1287.88430190466,1233.40049697593,1408.18261706603,11.6677515416383,11.0103960833831,10.4537037994701,1991.26801910744,2083.95469749315,1836.17228412234,525.914889425059,231.830996669391,1076.22622258234,732.962361675655,1120.47658997122,1032.22472080599,9.1388613702544,9.27286502005211,11.1111397750182,1791.62677239729,1518.62764805843,1127.1781195107,281.191422062929,713.6413273778,742.696410469783,1225.48995069577,1385.06169692147,1485.94515723092,10.0331646562948,9.71856490029938,12.9209764914145,1319.6615601374,885.44827818469,1172.75665880167,1103.79560859822,390.614324516352,841.71135838484,1724.71542193001,1629.52321811339,1775.15633506575,11.8454660740504,10.6338579686981,9.90887901878875,710.040400029273,561.521366436491,468.005030432471,1369.07006978732,1264.65875686047,1358.34227860711,942.032276139075,827.114456425835,1175.44186982079,13.4619138649198,10.6824850041019,10.4386277362239,360.94525800203,358.808548667849,271.699342031706,1394.70136379193,1420.33695342934,1754.6453550007,887.829667500095,844.64773537297,911.062011862438,11.02966217478,9.48277120528121,13.925985660625
,92,1983.7998739125,1928.0675894242,2027.6691146496,256.58101541291,1173.49497266806,1200.71058320129,640.945397734696,1011.73060378314,574.738331454234,8.48397117420939,12.0229644460417,12.554205968289,1798.66065323824,1730.11548080352,1863.99548679877,276.327544619262,269.325753088067,492.943587297466,258.877379269838,829.074013306082,887.327677995301,9.78206974358295,7.51407700817015,12.6354140579759,1784.97034204307,1797.83248056567,1650.89943363844,291.48999261845,321.130593126105,519.709994916939,912.494227100165,854.319746151424,986.483485560998,10.9075427724409,10.7947079691048,11.1568085226434,1506.77615309697,1560.04226438368,1358.22084235583,351.10683352294,153.265476670587,757.11086512906,485.62161946191,750.439837830243,684.856887884525,9.93419206380054,9.95496157352829,10.8621425686774,1330.03957065691,1119.75467419304,822.425696979661,189.162294329502,528.359422527541,552.122325843493,791.801817370945,899.30630140098,955.259162974688,10.5094887874901,10.7225870478304,12.4219267719847,958.238203315606,634.381335225159,833.705698257495,831.001000240711,283.874784656331,625.112751543132,1261.48178511233,1170.56847989981,1297.35214322664,12.443346843306,11.0110389074517,10.8603229752878,516.804393500695,396.359135099138,325.239894446552,950.644524851209,884.019919892456,939.898924019261,739.519203236174,650.452921831747,923.580612330834,12.7107033001356,11.2115859252165,10.9332492689387,258.036788991017,257.16844629658,194.177996360667,1087.52907942851,1120.37327640162,1385.09295608223,715.168378720028,673.233098046534,755.724540311016,11.0162963165938,10.033244865044,13.3823138715469
,92.5,1381.75039625063,1330.59142017557,1405.5446617526,167.035490985844,808.115240226795,831.176918574603,384.14749816974,637.036517875419,334.036151068966,9.73463183543743,10.3068145899808,13.3285323977572,1225.55610464667,1166.56849394327,1265.49392911456,175.448199000247,168.571701082224,322.591149580971,140.633796860246,456.584949288784,492.428711609273,9.88434427250581,7.73805003880705,12.9493770028841,1211.61131229679,1208.75227241736,1109.500049362,193.561028564025,213.09407155679,346.136806199086,551.332360452771,499.590416027171,586.937625733539,10.8780086086869,11.292864828127,11.9230348288418,1011.24571137177,1043.47209324462,905.335996663914,206.590564900521,98.7688433773233,457.791649144032,270.326071317006,411.994854128806,371.035635970172,10.0307567829735,11.0345805200158,10.4305492659182,879.900353541411,744.469166180742,545.611071964624,120.776422049988,346.894747417401,362.50939219297,454.602866959776,494.914147030578,506.431658721967,11.0914886864476,11.6983159373563,10.9761648614498,630.490153189541,418.664950330821,539.242265094566,557.786372903964,196.138315472466,417.423867530276,839.99581338401,763.939838859566,873.079571886272,12.9800320790466,11.0310765629195,10.9144827925113,348.497966118077,260.925418652603,212.374667226767,561.885694423002,528.703208281726,550.189265199368,509.639160917533,448.631148875084,634.027565062835,12.6368777511893,11.593450040976,10.9065998060419,173.937228333477,174.489221151043,132.439431308922,750.698012527496,777.849027472256,962.130783070873,547.600745000439,512.577996620335,596.984614004584,10.8675186847221,10.771580361152,12.4058285843395
,93,830.768318581537,782.587687668916,829.815867773118,110.382451196429,504.556421139169,519.933739624563,197.123884785857,357.46973698155,165.92576428524,10.9393468130388,9.88849273220535,15.6696897509797,701.877797724365,653.16226865671,718.752827032885,114.813871545159,106.99929111135,199.852515895628,65.9547551426743,208.601468556569,230.826521576458,9.92637689041226,7.76054621403398,12.9461547493117,694.132654376053,675.388429947967,620.912847176334,128.431472666004,138.273422149009,215.215011324835,300.078156648502,260.14690177051,314.904825386732,11.1984367782637,11.397099976429,12.0367366068708,568.462045761528,581.32049599724,500.216752297102,114.227594417587,71.8398237511319,246.74213732455,125.728730540824,190.860594505839,166.815820158459,10.5660441840225,11.5770973781636,11.3703257152346,483.415488361963,413.36353733905,302.725975399978,81.4597764560622,216.913549541974,223.009774162126,211.595979511341,206.392883325704,196.361417046614,11.9654564917108,11.8741955677926,10.6754313748372,343.595219511871,230.105943583877,283.420686535042,338.325705580926,137.389864803221,258.191938460817,527.395328933214,476.322023465135,532.100486418527,11.9331932481178,10.2915435399617,11.4537271954289,202.114886163612,143.734304995859,116.895661068369,295.055132834149,285.702752678098,283.327282435923,316.371417683362,282.444315444092,387.76521509779,12.6457799405794,11.8310321783689,10.538469180813,103.588808376202,102.809484621919,79.107464607832,454.504222414349,478.113983608629,583.857286239853,391.017690298113,366.893819766609,437.480586460201,11.8801252706011,12.1569436404466,12.0284405060839
,93.5,348.756565892355,309.364462024141,329.315419837804,76.0377144531344,248.561878699236,255.511503257306,110.816517701156,184.681729335671,91.3145289097893,10.793806995322,8.41425050097212,20.2519845076906,262.268625108776,230.435803031213,262.512423269374,75.3170586724808,67.3049637363433,106.958740021024,38.8749379333384,90.5954100744653,100.773752912897,10.9188634970174,7.32139537877026,11.7400336055721,263.506381955927,240.58624563475,221.965394740803,85.4918104448344,88.2800024714431,119.613295612928,168.400332910081,141.539115588207,163.703248498751,11.4757166542651,9.51403683904402,10.9055547986052,209.923253969449,209.667848482494,175.611052709222,70.5706904200965,60.1193817303044,123.363759567575,74.8208552113182,102.758982982723,88.2825942342851,10.8839980528177,11.3847986924337,11.6701820897196,172.769114277915,148.099539584477,109.153254095075,61.684925380836,131.642405930916,128.515166431075,103.194857288582,96.9548353230641,91.3795277386308,12.1740280674679,12.0916620743803,11.3962025459247,120.274670248674,81.7500540200231,89.2188603644595,171.697482887869,100.618547098603,143.168112698292,318.574738227624,296.297123547515,288.424155544188,10.4900164242874,9.18257210092384,12.6773933719568,86.2246015502225,53.3261843185371,42.3638751225201,142.581804038627,153.163912481202,136.60569403471,160.957314633095,148.152561041625,190.1595099485,12.3785876958118,11.8541833548742,10.7567626898144,46.9285838615431,46.2454206966341,35.1257546430603,202.87624716191,220.974910485378,257.482106442292,259.935264068264,245.126411906912,289.768860232796,13.8005329868541,13.0311976979127,11.3906741486604
,94,70.4729853568838,57.4068570725622,58.7318242553083,55.2008521312307,79.7458966979924,81.8493335715424,84.1041973542691,87.4690515030278,66.8731705514153,11.4224885200588,7.72040866797613,23.8606427078488,45.1596860736223,31.2485882878279,39.8618714990757,51.8184725483085,44.9797926556945,51.8648401591687,35.1383200964628,42.3557456753111,43.219646903531,11.5132856638199,7.56372890458238,11.6902021629789,44.4282438630125,35.4961697394223,34.939345169611,63.2724856062119,61.2807701065688,65.486175439203,102.241569539597,85.2767866317854,82.0708485419322,11.7753826491252,8.98256785086528,10.3106464856801,32.2802514118579,35.9724096753064,32.0889498014106,53.7046852307913,54.6291814246111,61.7753114193791,67.6585668119313,69.8615141631617,60.4521257274766,10.9180066540818,11.827600903803,11.3650370237224,27.8831868494723,26.1044492658298,19.6755002830409,51.0959322342741,77.0928823436757,68.7168656177297,97.5384204293669,90.9566379801292,88.301275098324,12.4390281005292,12.1690163913868,11.2109568799013,23.7910452728302,18.8827769728742,11.8121610720929,79.7801863824095,82.2690464563581,80.8819228330093,225.14658367912,218.606799941,192.721986707899,10.2870078919788,8.63502230287929,12.6777364888997,33.8014624879125,17.4718955017919,11.5254966039257,66.5790709502758,89.0002261217763,64.8901803267698,61.0669735473296,60.107746904795,67.0203711007684,12.3952220815194,11.7181436732196,10.8323166996131,20.668126550752,22.5584362852532,16.2389955418018,59.0931947574765,66.4561393889874,67.532872720663,184.105315822531,175.244591312792,201.447482425933,14.7103382381292,13.2093466143076,10.4899788342267
,94.5,17.4914746215522,15.6851745944423,12.0041862426688,50.557412755418,31.991895791239,33.9872454309074,71.1482945378451,48.8616983106439,55.2441554185168,12.8383717825623,6.2475960016676,32.5660286978049,18.2922967550581,16.6285801231104,18.2089267369797,45.4641481803598,38.1345259679716,38.8866099927942,32.0129292056326,29.0818763542908,30.0664668748917,14.8275501517126,8.52327265896906,10.7063401077962,13.6527989721153,17.6805997135292,20.4225959155096,57.3692873236165,54.8272939604997,50.5782563451237,82.2420213209533,65.389976518597,61.1482423339388,12.4968010995434,6.42025658845,9.37166392871677,10.1985991238311,21.0203865363439,23.786708241017,48.3586768856094,52.4454793653728,48.1196761931177,60.0896929000891,54.7144375117996,46.4027560102925,9.92531242265034,11.563247280705,11.3927668912688,14.5809468706271,14.3957289406439,13.7272381314529,48.2366035189424,56.6150335572879,42.0693749520939,93.1732382192949,79.5276928744199,86.3930233663547,12.5185701588246,12.9370913860089,13.3593356248956,19.1564622248479,17.10785025285,12.70811120255,62.6528136089498,79.743256959107,69.4154855676514,220.507885324188,217.800080700923,190.41725748801,9.17109022339275,8.21198150720272,14.8776779483453,35.3585629608643,17.6536663384835,13.2051167544042,52.9349880236646,75.9945941226791,51.7377932159487,22.7202208417759,26.2604856239686,24.4690283455616,14.1855389686538,12.327519304831,12.0312949738125,20.1710574803935,21.8534556349331,15.5857136949487,27.1518057953818,27.2634556204341,24.9872500000353,105.319622854607,101.532586307516,104.938722893806,17.110670613185,13.988033021167,11.5639969540965
,95,10.7276624075926,5.70352464744155,4.74707775476236,22.2172143470323,15.8164638468373,17.0648326876966,29.2032398805972,17.2366574033175,22.4687034340693,5.79443595643124,1.64571416293836,17.8946154045228,6.96116921354098,8.87552888712412,9.43864412380253,18.8463738982479,15.6752100037007,16.9777327226899,12.8935550725973,11.6887396765702,12.6439655961561,8.12798167625601,3.94732266399456,3.9265322846536,6.67996645516268,8.87461807524539,10.1405315007082,23.8940458755475,23.1975638315946,20.7070078598733,34.7822250585831,25.7280989225201,25.4823022724125,5.42646817490902,1.18176956037883,3.33455473850154,6.04508237101925,10.2799103593509,9.89148588981823,20.2509395848001,21.800352731732,22.0814443163034,23.7721430989067,22.1879676240233,18.6469840989005,3.69792180824209,4.47191354671793,4.71263233689433,8.02559294409514,5.6953796862158,7.11652728724266,20.3345048098653,23.2056332872903,14.703555415777,38.482704759007,29.9685701059163,37.5169364269847,5.19672647322955,5.88086050119682,7.03220847226373,8.49262886203996,7.33954338457727,6.0660349400124,28.081650294818,34.4917087403097,30.6819939074338,92.7602461043316,92.139375872162,78.1025257396451,3.23422931359721,3.51575260280322,7.69649994598171,17.695103522091,7.32781838642438,6.76653455055305,23.6745750439363,33.2508388341879,23.7233956446697,6.27021672689921,8.08747110359582,7.77252087494207,6.78941170863106,5.48424987214707,5.97172202785964,9.26159886885011,9.29317075556162,6.35298214345198,11.7276383907357,11.2801563830074,10.8169809124798,18.1430931296979,17.8609860361951,11.1106702607296,8.39373160805098,6.20611174028977,5.54975057850277
