,Temperature,A1,A2,A3,A4,A5,A6,A7,A8,A9,A10,A11,A12,B1,B2,B3,B4,B5,B6,B7,B8,B9,B10,B11,B12,C1,C2,C3,C4,C5,C6,C7,C8,C9,C10,C11,C12,D1,D2,D3,D4,D5,D6,D7,D8,D9,D10,D11,D12,E1,E2,E3,E4,E5,E6,E7,E8,E9,E10,E11,E12,F1,F2,F3,F4,F5,F6,F7,F8,F9,F10,F11,F12,G1,G2,G3,G4,G5,G6,G7,G8,G9,G10,G11,G12,H1,H2,H3,H4,H5,H6,H7,H8,H9,H10,H11,H12
,65,33.6433428585174,73.7118374523657,67.0307085605486,10.0244082526215,15.3519125462817,8.7551177381838,25.5737592327177,41.5425986642458,48.1584476620164,68.5157624915832,41.8896749078681,50.6097948923393,86.7314953707178,77.2142938475658,84.5545326632478,0.175182895517992,-10.8817598990422,4.59057243860298,-32.4146713184941,-34.1689562378633,-25.2956612718085,26.4848362431053,-1.69027488041274,-5.24804065460785,85.6991502455326,94.3721795970564,105.062463998572,-18.8349770378809,-26.4319453157509,5.08144620678286,5.14078695309081,7.38174164847442,12.4094699378848,51.8947527032237,40.8406938360495,20.3816079151156,109.558512469057,83.0746038123089,82.9154049351741,-31.2984788127746,-12.2639314988223,-44.9345746116464,11.7134712624975,-17.3045232751228,32.9434203610408,36.2752655619511,2.81328203983139,-1.28488409800229,36.3259091790271,106.381792797983,24.713512140911,53.2845976732606,10.6372475632861,-9.47530266775084,71.9081411960215,53.5593557654047,30.5808223937033,2.61974425525568,-14.1567753546583,-32.6901297528043,56.4682937195203,109.457879472946,128.881162668881,0.635052895537683,-29.6979503312155,-11.0350103484029,12.6015504429761,13.7530656896643,13.5499933762235,18.8449897488495,6.26201301699439,-19.3983499233509,45.1812051231398,109.065237093414,109.025942398583,4.52277440845137,-4.62997100673783,-37.3848458302582,30.3146753032361,52.1573900052263,1.94230795606609,11.6283975304477,13.942461412787,-19.5923249877169,42.9880548320446,54.9401526488542,89.4585739190313,37.9997374964287,43.2217146441185,38.182374832089,6.86958384018135,18.1669219557075,18.2271005541793,53.184762678271,59.5521996863176,5.70834926355383
,65.5,72.8939095267892,159.708981146795,145.233201881187,21.7195512140142,33.2624771836104,18.9694217660649,55.4098116708942,90.0089637725368,104.343303267708,148.450818731764,90.7609623003846,109.654555600067,187.918239969888,167.297636669724,183.201487437038,0.379562940288452,-23.5771464479253,9.94624028363978,-70.231787856741,-74.0327385153701,-54.8072660889179,57.3838118600584,-3.66226224088905,-11.3707547516519,185.681492198653,204.473055793619,227.635338663571,-40.8091169154086,-57.2692148507967,11.0098001146962,11.1383717316926,15.9937735716967,26.8871848654148,112.438630856987,88.4881699781072,44.1601504827495,237.376777016286,179.994974926667,179.650044026211,-67.8133707610118,-26.5718515807844,-97.358244991899,25.3791877354133,-37.4931337627672,71.3774107822555,78.5964087175612,6.09544441963681,-2.7839155456727,78.7061365545585,230.493884395628,53.5459429719681,115.449961625398,23.0473697204575,-20.5298224467924,155.80097259138,116.045270825041,66.258448519689,5.67611255305292,-30.6730132684279,-70.8286144644094,122.347969725628,237.158738858045,279.242519115907,1.37594794033112,-64.345559050972,-23.9091890882037,27.3033592931101,29.7983089942768,29.358318981816,40.8308111225087,13.5676948701534,-42.0297581672603,97.8926111001335,236.308013702391,236.222875196933,9.79934455164357,-10.0316038479309,-81.0004992988938,65.6817964903412,113.007678344661,4.20833390480402,25.1948613159743,30.2086663943687,-42.4500374733798,93.1407854694296,119.036997405851,193.826910157901,82.3327645755912,93.6470483955895,82.728478802861,14.8840983203913,39.3616642373636,39.4920512007166,115.233652469589,129.029765987018,12.3680900710333
,66,67.2866857170361,147.423674904737,134.061417121095,20.0488165052438,30.7038250925602,17.5102354763644,51.1475184654405,83.0851973284957,96.3168953240379,137.03152498317,83.779349815743,101.219589784677,173.462990741435,154.42858769513,169.109065326497,0.350365791032345,-21.7635197980849,9.18114487720595,-64.8293426369951,-68.3379124757262,-50.5913225436166,52.9696724862042,-3.3805497608173,-10.4960813092171,171.398300491061,188.74435919411,210.124927997142,-37.6699540757618,-52.8638906315045,10.1628924135657,10.2815739061743,14.7634832969511,24.8189398757636,103.789505406454,81.6813876720985,40.7632158302304,219.11702493811,166.149207624616,165.830809870349,-62.5969576255529,-24.5278629976474,-89.8691492232915,23.4269425249972,-34.6090465502498,65.8868407220784,72.5505311239026,5.62656407966506,-2.56976819600914,72.651818358054,212.763585595964,49.4270242818166,106.569195346521,21.2744951265795,-18.9506053355008,143.816282392043,107.118711530808,61.1616447874053,5.23948851051045,-28.3135507093148,-65.3802595056122,112.936587439043,218.915758945887,257.762325337761,1.27010579107491,-59.3959006624355,-22.0700206967999,25.2031008859481,27.5061313793362,27.0999867524456,37.6899794976971,12.5240260339847,-38.7966998467018,90.3624102462754,218.130474186823,218.051884797169,9.04554881690547,-9.25994201347157,-74.7696916605209,60.6293506064653,104.314780010457,3.88461591212354,23.2567950609032,27.8849228255676,-39.1846499754242,85.9761096640889,109.880305297707,178.917147838063,75.9994749928496,86.4434292882361,76.3647496641797,13.7391676803613,36.3338439114059,36.4542011083536,106.369525356544,119.104399372632,11.4166985271077
,66.5,67.2866857170407,147.423674904732,134.061417121105,20.048816505177,30.7038250925511,17.5102354763562,51.1475184654364,83.0851973285348,96.3168953240288,137.031524983212,83.7793498157498,101.219589784719,173.462990741442,154.428587695137,169.109065326479,0.350365791036893,-21.7635197980812,9.18114487719822,-64.8293426370319,-68.3379124757698,-50.5913225436252,52.9696724861847,-3.38054976082231,-10.4960813092353,171.398300491058,188.744359194079,210.124927997148,-37.6699540757199,-52.8638906314927,10.1628924135589,10.2815739061084,14.7634832969161,24.8189398757686,103.78950540648,81.6813876720344,40.7632158302486,219.117024938049,166.149207624669,165.830809870337,-62.5969576255475,-24.5278629976451,-89.8691492232515,23.426942524985,-34.609046550248,65.8868407220643,72.5505311238558,5.62656407964914,-2.56976819601005,72.6518183580467,212.763585595951,49.4270242818106,106.569195346526,21.2744951266136,-18.9506053355458,143.816282392017,107.118711530778,61.1616447873466,5.23948851046589,-28.313550709348,-65.3802595056459,112.936587439032,218.915758945878,257.762325337784,1.27010579105172,-59.3959006624709,-22.0700206968017,25.2031008859462,27.5061313793626,27.0999867524247,37.6899794977426,12.5240260339956,-38.796699846665,90.3624102462709,218.130474186867,218.051884797183,9.04554881690228,-9.25994201349022,-74.7696916604941,60.6293506064667,104.314780010417,3.88461591217992,23.2567950609159,27.8849228255881,-39.1846499754306,85.9761096640912,109.880305297717,178.917147838071,75.999474992891,86.4434292882497,76.3647496641283,13.739167680325,36.3338439114632,36.4542011084059,106.369525356499,119.104399372594,11.4166985271158
,67,67.286685717017,147.423674904747,134.061417121058,20.0488165057245,30.7038250926316,17.5102354764135,51.147518465456,83.0851973281888,96.3168953240847,137.03152498287,83.7793498156611,101.219589784375,173.462990741384,154.428587695125,169.109065326624,0.350365790992328,-21.7635197981103,9.18114487726371,-64.8293426366999,-68.3379124754333,-50.5913225435397,52.9696724863916,-3.38054976080684,-10.4960813090897,171.398300491092,188.744359194365,210.124927997137,-37.6699540760419,-52.8638906315446,10.1628924136262,10.2815739066732,14.7634832971535,24.81893987577,103.789505406218,81.681387672551,40.763215830103,219.11702493855,166.149207624227,165.830809870437,-62.5969576255829,-24.5278629976588,-89.8691492235716,23.4269425250372,-34.6090465502675,65.8868407221848,72.5505311242396,5.62656407973054,-2.5697681959914,72.6518183581009,212.763585596102,49.4270242818748,106.56919534648,21.2744951263066,-18.9506053351856,143.816282392221,107.118711530995,61.1616447878032,5.23948851081332,-28.3135507090901,-65.3802595053653,112.936587439121,218.915758945943,257.762325337582,1.27010579123726,-59.3959006621735,-22.0700206968281,25.2031008859813,27.5061313791271,27.0999867525757,37.6899794973865,12.524026033916,-38.7966998469597,90.3624102463211,218.130474186527,218.051884797057,9.04554881692002,-9.25994201334879,-74.7696916607133,60.6293506064967,104.3147800107,3.88461591175337,23.256795060789,27.8849228254621,-39.184649975401,85.9761096640698,109.880305297631,178.91714783801,75.999474992585,86.4434292881442,76.3647496645276,13.7391676806033,36.3338439110094,36.4542011080043,106.369525356875,119.104399372939,11.416698527034
,67.5,65.9456595189872,146.103444523721,135.150955346217,18.6453729648215,28.9072589928023,15.7836895157902,50.4462362265554,82.9225355163917,96.1030602735768,136.794641485506,83.0599771513598,100.193879083181,172.972460583146,154.830567339682,170.152697042679,-0.846290301886256,-23.1096898067367,7.9436623053939,-66.8505814237515,-70.1142864162098,-48.9315126111424,51.0850919541226,-5.26888741766925,-13.8426274138737,172.229611414858,189.694171365246,211.576363744257,-39.3014127329175,-55.0198430405885,9.34887850526502,8.89333052732172,13.6444238179579,23.8896368096766,104.119426096398,81.4602130412759,39.3385782011123,220.232581956159,166.971541218204,165.677165506217,-64.1544825431147,-25.8643839808938,-91.518245904299,22.3423079581885,-35.9518887029262,65.0356843984605,71.9530263390097,5.1135935730581,-3.97451710952009,69.1003558904636,213.765977578891,50.7164345015581,104.581780620927,18.636098477672,-24.0269456384858,143.365927517633,106.787486180885,58.8831441955381,4.06765719660598,-29.1586822942168,-65.7815564370571,108.49878180816,218.730775525494,258.393655992945,-0.798421166310163,-60.9601229655746,-23.3430843500746,24.8567808225289,25.8693832945669,25.8742677634418,36.3488139991605,11.239383740367,-40.8325285867568,86.6722762702839,216.650115120714,214.113975625581,7.57183048731576,-11.1782551764877,-75.7694304808269,61.2402277006427,103.300331600755,2.23025926497712,20.8198979389867,27.0754212175993,-42.4024892380744,82.0392623351313,105.917958056121,174.733155141266,76.5880514908927,86.7749193646318,76.5483020969132,12.6826879663058,34.6632495774375,34.3564138374682,106.521961443432,118.961562603514,9.07209742571513
,68,72.7561156745519,153.52175797343,127.331713211865,27.0900916615624,40.6519524730261,26.7321289018896,55.1536399083275,83.9156112165251,97.3288655322649,138.260918888515,86.346771923646,105.7648135923,175.235324163495,151.831265085513,162.991411191402,6.42773229037994,-14.9379192289662,15.4614014057556,-54.7288049922709,-59.575394762006,-58.8753564196868,62.4098198430893,6.20120560059286,6.17786506026368,166.317399220132,183.008197799412,201.548247495404,-29.6205602381892,-41.8780102530741,14.2829617914222,16.9788666284858,19.7353112620408,28.9506923373515,101.609497162756,81.9647510248574,47.3881262615478,213.120411353327,161.153033098289,165.639245365458,-55.0808154426113,-18.3009056532223,-80.1806378220326,28.4264184288704,-27.9163282542536,70.1937818186921,75.2627257003765,7.48936604678829,4.13340096672118,90.9515934979772,207.042584718687,40.4993752581659,117.111889408803,34.1328377976092,7.41490849031015,145.98212925753,108.828879881175,71.9897836492178,10.5587561133893,-24.494194203281,-63.7305008786916,135.404906082348,219.452468083422,254.233045600387,10.8808767317801,-51.7456657952039,-15.3470090624314,26.7740338569365,35.5217223297141,33.0621701989949,44.6516325827006,19.1389917582642,-29.0377520683896,109.329214118321,225.893170431126,238.71408492397,16.2845101355438,0.645706289826649,-69.7059077538088,56.9784664202703,109.594465448048,11.9785383883268,35.5567620737988,31.8561245521946,-23.2721495082374,105.868132129392,129.757136483058,201.361826580845,72.7857164474822,84.7086206368713,75.6472793904468,19.2777943904398,44.8191463536432,46.6697371979785,105.175081583672,119.634934125829,22.2685933569546
,68.5,96.3813448840037,172.064911704879,119.551379867726,44.5409636417817,58.8382750116443,45.2421927350083,59.4789642062988,85.2542583340937,99.7476139330101,139.868175006745,101.492765735175,121.707193221233,184.786552848163,148.273179760933,153.237697459067,20.5153458820942,1.41307847905955,30.4074383983557,-29.4207194442315,-36.3076064386851,-81.1287976115191,85.8870703452922,29.4203744259194,49.9360899261583,160.386457512327,175.134654205646,189.387207969508,-8.96236500909163,-16.155029593669,23.7069476466595,35.992211724666,36.7980360700685,43.1228357256709,99.0236531102241,88.3909778251318,67.8359779009929,199.876456491801,153.918354282176,171.928957783565,-35.2731346935775,0.991667625655737,-67.4964917546258,44.5621460440025,-10.5988180304453,80.3985769796468,84.4643136932236,16.9042616276151,23.6750514766818,134.216922918652,196.766814433877,34.0692857322842,138.992549972876,70.0155236403102,67.2990311119556,152.270947010171,111.786563186887,103.870948406764,27.812865714081,-12.1720004033082,-57.2394939297656,191.934809255747,223.072458899758,247.968613187333,40.9788988412715,-31.6411731100507,-1.5248004127111,31.5336938481737,56.5859939726283,48.9874811698392,59.3875502158185,34.333630133744,-0.400241132454084,154.731128677122,242.718852241924,284.06092039318,34.9536490486862,22.8745815506463,-58.236281847298,51.9391085624675,120.908746471649,33.826008378684,64.966755044913,41.3653713500526,18.9552095469171,156.229928869417,181.200385047137,247.121849110523,65.7479608744766,79.678863966657,71.6313325600313,31.1298732445516,64.7684786157497,74.9961235011469,104.267655360328,121.223708161564,56.7771071663378
,69,134.487529499204,203.171286658921,128.58190678866,64.1010440586288,63.2467749845291,60.061757862612,71.5539712549266,89.4203788194636,106.37409022746,147.90261550551,124.992867661912,145.403864749369,203.962112344233,160.225009008988,160.041245180531,38.1876555230192,18.5691114341153,46.7240700783655,-0.34634045160692,-11.8924502614459,-99.364255438742,113.39384228889,52.3543526024382,90.6844982564526,165.386260908738,183.714680757316,194.174133913726,18.0957742927744,12.2580461008629,37.1751540062778,58.2121630324395,64.6768722169877,65.4929003560424,109.46858782936,108.665504011065,97.117324506256,197.9945771197,165.22431665123,193.473013423361,-1.86657584779914,26.7821761293676,-66.9801043644338,64.7297941996535,7.53865254479524,92.3978136340611,94.613876454353,39.6993241949481,48.2561952578944,168.13106461751,201.362876302949,76.9435472536134,156.144038276978,107.364922851679,116.618865553646,158.05554510768,119.914323704507,144.327925177993,55.0391797243669,8.27801089829882,-44.4683720792596,239.372956828009,235.776369215542,245.819787090671,81.4690262534423,-4.39397070131872,11.8662192652455,40.8069362532742,84.9892785229104,70.2201760038888,77.4193087573185,47.7777586414277,30.3845220639305,189.829450114521,256.36533605469,318.839179493469,60.5929841243619,45.5121202775158,-41.771692006716,55.0250947793547,133.288868241219,58.7906871000091,101.154546463946,59.4647356684727,63.317427665831,199.155975654337,226.719949238519,275.102193220559,66.6380481946535,82.8880667976227,68.0465451674131,41.5774561284384,87.9806182163579,106.444068007916,115.540852056162,132.209117533552,102.756062352595
,69.5,189.663931895298,252.892502679895,161.448949112643,92.7573983586053,68.8580475748058,82.1373915267518,99.7499915948006,108.731427318713,123.124975777883,173.574594851785,154.612342222173,185.585369380133,235.618446694014,197.403374072165,189.192320078347,67.7199662566104,47.9161226595088,71.7727478195648,44.2891154803938,27.0349705657022,-105.201772576175,149.022434871908,83.6374542739659,137.241295630694,180.303456626089,210.982896262121,220.621065920847,60.2453886791773,56.2137854690145,61.0659602826386,86.9157500039873,106.34482937724,103.458125497807,138.210567078487,146.969579265515,137.687844547418,213.49630424271,196.960779464816,234.801026618857,53.8937183451958,63.7390089168148,-57.3504358620144,97.1992229215493,25.6459612793374,113.690386109291,118.602246694441,80.3196422761689,79.7794675053879,197.53191410646,225.508033921387,156.860343387941,180.86971677089,154.933037226151,169.532731790634,171.653989018414,142.656687600728,198.725515536603,97.3912092664582,46.3272922532001,-13.2210206366281,278.85046080225,263.752436240582,252.650115609229,135.777444729643,39.2228985017755,33.4121300071538,62.1174951301391,126.133377108909,108.752305864082,114.836310730194,74.174727682614,71.1397225889059,218.089484019619,278.225401198126,354.277907394982,103.493551992475,82.0004750013759,-8.25003971309934,70.1871160453643,155.414319037953,98.357288896902,155.415389626849,96.7673991353136,115.525176715073,233.910018139701,266.166001123015,296.783703103628,84.2743523373733,99.8093453667075,75.4207315244339,59.972479935755,124.069947197175,146.236841212196,147.279378102086,160.751800935214,161.35625999519
,70,252.882936400227,309.95680161683,215.259854088115,137.256615686435,90.6255191886298,111.306380644318,137.711648085584,142.932209545441,152.104849608352,214.062060360236,196.948644880184,235.267865771329,274.51946683451,255.435072705119,235.377857452786,107.121602851761,89.1904039079604,110.082324412884,98.8397109121192,84.2780806538258,-81.2340613725769,193.710122441262,127.592042542785,191.524985250499,210.397982668346,255.960918043936,267.03305794255,116.233601704309,110.591870276507,97.5054991694351,125.604498002442,162.668253121522,158.127426166665,181.381035116851,196.02952013103,183.830911377041,246.186779601373,248.601642477884,289.877364488399,119.181183874908,118.04326422142,-36.9344493491817,142.488323521934,48.2762979293821,144.765263654373,160.906337147202,133.10560272862,108.010898915343,220.924170361772,267.786334237286,246.496870916771,213.929380131407,213.603478001313,215.933899242936,201.679449161911,184.572124189071,260.491380597531,153.403255787432,99.7016005228129,29.8509413846496,302.796083405692,305.156323837488,272.750502718119,198.07010768783,98.758312378422,68.3069933107208,98.6367446211025,178.279085642328,168.05367412519,170.633418210735,118.34389133087,123.62196305548,235.235583984405,310.048670147208,386.980153542908,160.023986261666,133.172722354659,44.6208104509451,105.844029521427,189.173156025023,156.393810508139,216.808539237004,150.017025976636,174.426275543167,254.36395011558,292.436809989593,310.393301730218,121.512491040892,127.669574839492,102.398846679962,94.6714499142786,170.692233470384,198.083460128029,196.625164566835,204.891292709307,220.594991580616
,70.5,315.616811760873,362.832367634855,281.708169119477,194.026602404349,126.468151549706,153.072918923161,187.824042235203,190.310863989049,196.546967006678,260.764694841273,254.974950112882,286.57142071084,315.812585191013,318.252704671605,292.032169183039,158.799302638834,143.798568534797,162.873032904372,155.474613854244,150.990829086592,-13.3380494469156,249.998271007845,181.025691888409,241.297481098527,252.570627121708,313.839238928388,323.671357724591,174.770501268837,165.810300410375,147.385933302835,170.789595202265,226.568996097998,219.366509063176,240.796204285062,253.376046765568,232.820905936064,290.203945645049,310.937629806078,345.040201241029,187.572195336056,184.675418836841,-7.58615391612557,195.215558708456,84.4215113482464,185.293803105546,207.54032836133,193.031098930002,134.466308651726,234.834503378695,324.141096348636,340.778505562639,255.155442332114,275.323997780243,257.857619834386,244.506125894953,238.014849239651,321.615477233757,220.899883212434,160.779261351836,96.263221161154,304.440052301801,353.40344124078,305.594716039345,265.390101605376,167.13042762434,115.500172493615,150.538088531362,234.852520712757,233.172598833309,232.817861458603,168.250543628764,177.419042080249,237.332929381301,346.786509026196,413.50654950524,221.766932269623,190.022835232276,110.260663799355,165.277731113326,232.119667491556,223.158069752276,276.408202359391,212.314240380183,230.099985671064,256.720980306773,298.611258569088,315.87847564213,178.628892045208,169.641496435736,146.535593220216,142.89019632997,228.171927465727,256.717997154442,256.382619674785,262.00643979039,275.675833394239
,71,370.274951065363,408.798226567488,348.282754389203,250.837551402332,167.596200015058,204.439340139147,244.230324668912,248.031374516977,249.102106190939,311.997814613022,309.464703505092,339.921060328506,354.991832427995,375.671802385223,351.599216290303,217.547228067308,204.462218274376,217.684194898087,210.030409192254,215.270039767732,74.9212560629485,306.877067764952,231.255344104292,284.682725305731,292.21435034305,370.765427577558,380.089446907487,227.030762442979,219.128447344695,200.990254137743,214.726304683571,283.148257128537,278.923819339469,305.411169989547,312.221991348649,278.732570040851,341.284331215919,369.593784054867,395.953318738498,256.877213796128,247.922781355705,43.2150948346175,249.619528980397,124.615550772406,230.864184195309,257.011194572807,250.753129120004,163.778834849357,237.546882375791,382.81257143325,421.798559763852,301.510031880493,330.96054634094,305.22403062325,292.384568776499,291.866614593067,375.114521121001,286.132134071519,222.21583061934,182.463193085984,284.128414958625,401.033521827712,346.302442339444,322.955094539411,233.623933737676,167.159650991232,206.32960247779,287.251334641688,293.34527737691,292.8860432924,220.712938116259,223.718108554101,225.01232935096,386.673220550624,432.319264763737,280.605412126076,245.436756353226,177.892543488027,232.067958673157,278.675491404149,285.985322066677,332.25039854593,275.160266588173,276.337881316607,241.97665045735,283.19154508474,313.152494503128,244.698132808235,223.4085047546,198.507923780617,196.262604391575,290.099995975607,313.31213884868,316.061530692325,322.069018833184,327.960204270662
,71.5,408.757991473647,444.694860587318,404.671564328372,301.544610397931,217.391881373164,252.217552352515,293.765595844737,302.281525713593,296.160510290617,360.628341552896,352.162104197835,385.27696612907,386.954092053375,426.61545223271,404.528786628,268.109718246175,257.449032524013,265.933985337507,254.340363132034,273.437957126803,159.371214622733,353.133719954807,257.450017329114,322.613428320367,325.364343023455,419.010882046701,428.710487142284,269.130122059841,263.9348804336,251.870676263838,252.892377556613,329.913598893446,330.554020522924,362.399117135494,363.233345036978,314.32781545266,388.658361318543,420.931355090997,437.997312404726,310.674142094047,302.598986454318,114.717471991899,297.805480970632,164.882552452576,272.276551523836,305.418234577681,298.130133443177,189.423303142766,233.475527549552,434.068547658808,473.404338868363,346.702767437677,377.531821792849,350.033269492169,339.051067216222,342.124693458838,416.889082802865,337.81739583555,274.348888737535,255.003157593766,248.039748325501,443.080239072576,386.784690611319,364.722656356979,290.417023162305,219.358471448591,257.722899346541,332.236145861662,345.679353586271,347.473156747756,273.151801892933,262.064124757911,203.385508912762,425.490664253787,444.035012427398,331.295685278576,295.022292970146,239.208520434501,291.132306427968,323.827355297932,342.337244410279,377.833427741242,329.26812929802,314.365747118734,215.654084546184,250.07135039485,303.029361839904,305.616092601346,276.016133863068,253.964714767207,248.371738677075,343.191918602057,359.899592577225,367.228109254022,373.847088062798,366.809535803593
,72,432.668987601199,465.94962316491,445.749351271645,345.335145350732,269.30679278927,293.300751895455,332.53484556407,344.097333340216,336.851316689689,397.412972577022,392.851420430668,412.141943102072,408.93108717993,462.193755041413,444.513687332066,308.149295639994,302.31893984045,307.418143174621,267.817936159304,319.803793460391,237.866273237259,391.309932263356,266.819025023727,349.067497739192,340.474991338972,457.62548682764,463.376098665946,296.732921884989,297.324035158224,295.46747484827,283.806771607084,367.437693987168,369.836260563709,407.78676021114,402.333919609111,337.967940647205,425.416913662799,458.996858023137,466.519554278439,342.863584613523,346.971445898393,183.673539478947,334.718054485166,222.408782163208,308.428840866075,342.843424105724,332.642028695378,209.702030299319,228.448620134269,475.427838346332,502.850227594305,386.084958406365,412.55228302095,386.735611656207,381.747251511553,381.863190716572,444.719316488121,374.756390537715,311.601313390102,311.951134988265,203.827552576998,473.19104238442,422.078339075612,396.529648021511,332.786984139158,265.612994896384,303.824138230002,364.916384007935,386.803188775654,387.871552764689,314.423126239966,290.77263348906,176.246532248916,454.693303019488,450.01489893844,369.805816223475,333.202027907546,287.192736510745,344.749045276661,359.958439589183,388.066325575901,406.298061058884,370.263666366004,342.431701126597,184.657320378285,206.231409561105,287.515955881394,353.336827112483,317.444656484894,304.56062516609,297.727145682406,382.73288759443,394.522367931223,404.639107729603,413.913152758543,388.780150473172
,72.5,445.566618593642,477.123783247315,470.091767062217,377.405467848966,308.189328948235,328.738628608855,366.618346094212,374.332510306642,368.222982494703,422.334437860883,424.090727947877,426.965149782055,423.867125231711,482.355839689559,472.289566568606,339.276705736122,340.735764516883,338.910378982997,259.933747821927,351.277510154683,296.263579133481,423.440373247016,271.704114692577,364.000916426339,334.181709535662,486.674603249861,482.066493877482,310.919024702764,321.105553902779,327.351919706316,290.951034397474,392.090552411191,395.311801663524,438.309823640235,431.663257834508,344.737958183252,453.0918869132,478.68946207761,482.652889114233,366.259828295571,376.766121743998,239.934852289375,362.418020035482,285.815542372746,338.464803914805,368.210764043674,356.565081245175,249.722953531922,228.388129638218,504.583252605283,521.778564424591,417.525626618661,436.444987051834,415.799001810511,416.339506736118,408.24715949649,461.55629384928,398.904868610711,333.322631572956,356.811079688533,159.957333922342,492.070171111251,450.74774255771,418.876808977226,362.415795870766,300.398863982361,336.888532377052,387.432398094958,412.199847522287,413.06130771197,342.265619833336,308.72828951694,149.114573330091,472.307252853103,452.328815500484,396.06102289509,359.08367237496,323.159414910937,386.844534488483,387.498093009077,420.169925452441,422.782668458538,398.006059299687,359.745758895721,155.485710288968,160.661657330388,270.34116648448,387.561939669878,349.526055554536,345.175071524608,338.067756524043,413.323816171629,420.293372595979,429.075375896566,444.289038299479,403.041813390535
,73,453.187982059117,484.733818688158,483.922161888773,398.071291331513,334.195709071998,352.761040818035,387.120595114659,395.510158011743,385.506012941815,441.709453450489,441.903744836104,439.550374517317,434.195889227779,493.650970430516,489.829023528609,358.831303404164,366.774321688574,357.490326089418,253.311485881744,370.024166839189,329.276766672666,443.708226038515,272.033965228115,373.907948368193,322.605256892372,505.396838931726,491.378251562423,303.839637582911,335.246807576405,348.365848198961,279.42726585271,407.609994101733,410.00371737369,456.794332040393,451.941893323667,336.012606253587,472.135492615109,488.512168653405,492.957967321629,382.18857181957,394.590738882943,288.36999911677,380.814095521591,330.624034033817,357.15706374864,386.945091522341,375.449348296095,301.821213130972,238.855594450442,520.762812781838,531.477523879092,440.444583853123,453.745068404839,437.350168631937,436.616943189688,426.42296300816,473.865075314072,411.540976882227,347.664274091003,381.218599780017,123.359450108688,504.616000145846,470.13418278716,433.495598469343,383.058241454781,326.851265261324,358.40947272521,402.527270973691,427.112462637583,430.632469370424,363.537389648935,321.561649147846,127.126178896633,484.747217477279,452.390923235213,414.862606529712,376.94785178192,348.446155262999,410.53119352305,408.090204917105,441.978541708971,434.369944756315,413.189998014728,369.705322895687,131.626296796385,120.881245979238,254.146060927364,408.684431986724,374.324674356461,376.298512494574,363.664611931605,434.866837456624,436.815871266821,444.149727019064,462.227264271447,411.192005604626
,73.5,457.967740513689,490.098190158444,491.298163733634,412.694897118473,355.843387543583,365.852477854156,398.092523736391,408.144904443738,396.440077133459,454.273121935634,455.375764646069,444.821896346568,440.798241049631,500.585791582345,499.484807088071,369.944313122921,384.140729643237,369.849443498654,244.422869923651,381.732066249089,347.142724059902,451.775643769264,270.735821807977,382.728715368793,313.098268216358,515.7191225604,493.933699874844,284.102291420834,341.8608947073,362.899605536441,267.886465509839,420.826112572388,418.512524361005,468.276240985916,462.040857942211,321.223582725546,479.48626400883,496.03409300171,497.936420381468,388.648391560643,408.956875958217,320.902703362748,391.090949803104,367.901617948105,367.417120512157,396.143313422087,386.688936166085,340.677427312472,262.442081314123,527.399833147007,537.233724901828,456.047503375117,466.225980765805,450.170146892922,445.143826317397,440.426003411985,481.108126324194,417.506988092156,356.04974522359,387.318862661222,95.9743034919854,510.686190055085,477.780839115672,444.997986268735,397.578786921272,347.553733168833,375.467640838482,414.540463658698,439.253681795121,444.195487943296,379.435315972525,316.803087216476,110.560961501012,490.101105693846,450.605910826428,431.316981669844,388.868355744362,363.924716466475,424.737587867015,420.420825105957,457.886848036905,443.196409527763,424.352483145326,378.956808633744,113.78971636211,90.1153222778269,239.959172319225,418.23358626314,385.421205896999,397.799610961797,380.307411921234,444.654819114476,444.61674164964,454.10363333635,470.724937437218,411.447214005039
,74,461.982555459062,490.929441728034,493.875650112943,423.141939659326,370.150515808822,375.957892075832,407.677836173386,416.641635893049,405.286350330386,461.112825857888,466.682910196051,446.013170585521,445.888083148262,502.867930744318,504.796015220055,378.423950515097,400.013297951678,380.710045740628,235.620192833431,392.632155961737,357.808570869706,458.973200371108,298.447119098227,386.026936075479,305.602510493643,521.79353736466,493.08820018243,267.646566251271,343.987229645425,371.805103812977,256.614133768401,429.298453559815,424.224546680502,473.692635762477,466.400131023833,306.317537387401,483.952786994914,496.548570285162,499.64322617787,395.044346311328,421.395373650982,334.396766372906,399.979488916521,400.843066140485,376.811915984638,399.415936996479,395.986699749287,371.521329117972,295.762572738247,529.706752986204,539.808150554051,466.473377429561,476.143228669579,457.686546503633,452.399169273532,447.606423803345,485.976676358366,422.05569477422,360.843759869122,392.369803737827,76.5988249065294,510.742595756974,481.949440448977,455.742708041927,410.565938713626,361.203176415057,389.205302426541,424.352880169997,448.753639672845,451.042803814047,390.315194221515,298.373283185302,96.2858830527174,488.95084155861,446.692711983933,444.149922187439,396.281625944011,376.863452433828,438.80902527429,427.560891812897,469.205158180049,448.755841636711,434.852548765914,386.076435635261,99.9973525203518,68.1743005092245,228.050375670966,423.863067470311,389.052929836219,411.932318630048,392.568274285607,451.345562353272,452.004604401807,461.554148076538,479.042616885409,408.618321340085
,74.5,465.965106396479,491.379628643578,494.362413021958,429.753455363466,377.025031205904,381.775746605542,411.308606992625,425.959486642119,409.556204309939,468.737048230573,472.894001290888,449.892002866667,451.170150410388,502.390468015141,507.529839975534,386.522461556214,410.833743668565,386.883879651673,262.861907271403,399.888667192802,364.8193440284,466.931932762047,347.939313806487,387.688256801568,323.158797859586,523.017481328722,491.290867784187,256.723675042243,341.827327268114,375.522602758398,248.146676230291,434.058274012961,428.394653012003,476.042289216663,466.23236678201,296.516770339566,487.776693262813,494.845791285366,501.160548706148,403.579796677146,431.065644960702,342.3098919462,407.283983902378,414.748503604199,383.892543080436,404.555936684577,406.723052067284,398.426662696044,332.016893390292,529.552501574158,538.077589799787,472.666893804093,483.254169898072,464.812455622864,456.612777613592,454.466286832398,492.251310960033,427.156643841504,367.596862915756,395.202288658565,62.7947645527748,510.303249689773,483.466493004464,464.159824118352,421.956754914121,371.156495879252,400.473341166579,432.99628580495,454.733915134724,454.381035362278,401.184954815045,282.876743667744,84.2593299486027,487.042146812496,441.441294239405,453.496558465341,402.580056515802,389.210165912307,448.571186813291,437.33604153049,477.049952393737,455.291219484054,440.616038242512,390.895535599324,87.934677023351,53.1826777956841,219.007286587979,431.681439821404,396.859769011918,421.327434743815,399.374587613712,458.82308458122,460.982266168246,469.822782886975,487.830848268868,407.761081591165
,75,469.270144395729,491.947203653034,497.720671296672,432.670738307712,382.679845880028,382.289871288942,409.561245495299,434.097481325873,413.947237563263,473.283666682742,478.748269388555,455.9332069102,453.222063687246,501.755151400355,509.882109940645,391.74718692056,415.206117869063,392.349108446698,315.667896528966,404.478483385548,372.666466470032,466.165439973418,386.235596681092,392.889756577572,360.713244369029,520.014054826345,488.780418842225,250.789387906502,337.430716385285,379.251463570473,270.278460149407,438.713709346206,433.526075388404,479.70047709559,462.815969650866,303.299327652829,485.691213110161,497.12282108968,500.061337396133,409.403553930578,438.234718615942,350.757049974592,410.555933882102,418.415999414059,388.282935915013,409.311991387936,414.715425163593,411.01454752138,360.158025082509,526.675369678569,535.278750269911,476.890373804605,487.162455345865,468.630788868695,455.929567834594,462.152274610398,496.059779667638,433.71890627151,376.989446624065,398.038559416739,52.3265041931605,510.162759193981,479.161385910493,470.496071695308,429.259015954141,381.020151252699,409.473637693635,439.409065740653,460.715705264995,459.090767812163,409.857591125739,268.39828865313,74.737287656248,484.244093621833,433.913639679828,462.659608072013,408.243722053953,396.126018733124,455.470509703169,445.944029687174,484.757263249365,463.306048428279,443.979036165564,394.769916417106,77.925569042222,42.8347129908994,211.385483801028,439.03109118538,403.482802454809,428.678304910346,400.588272161714,465.245883935662,465.599880655556,479.256891913262,492.646318568339,410.600642081261
,75.5,471.424663929835,491.106104643946,497.998346328325,433.968822507375,387.971128776399,382.639063593077,409.075900472355,439.479050511538,419.060056119496,472.313970795085,483.094334463312,460.19062271989,451.025682409416,500.400297712037,510.65708360531,396.015492677147,420.796589365317,397.784563787346,356.382249719192,410.505693700834,376.875534139866,465.394967935187,417.938256265187,396.378118267242,391.376922799791,515.681941182144,486.136137769329,274.756793946142,319.586853304784,382.974296382417,315.974094520531,441.022217593089,440.314163117296,481.09049112122,459.496488937652,329.858376612947,482.246961425808,497.860666615181,497.378755855886,413.208347262129,443.233737400881,355.111894959124,414.715350668849,426.068487094289,395.538827902781,413.291061476688,419.005543061878,410.71046840911,369.774643430788,522.792336568176,530.871629149088,479.566198924832,491.051579239646,470.009052699101,459.350565783654,464.763757214153,498.17643228445,439.054881884887,386.271075097768,402.893415266413,43.9638190806745,507.568133639997,474.298998904206,474.664998964706,434.958071013841,389.413971631533,414.32953565287,445.98510855688,467.860827068243,463.755543414479,416.533169199221,253.005470941196,65.5829721360005,479.307099463729,425.528313875168,471.157662793089,413.260549981513,399.435471833832,464.280475103343,448.786611616828,491.074637478378,469.802879600084,449.345403066158,400.198620788746,70.7955616090619,34.8984125199895,203.965495908667,439.494398561288,405.6526067586,434.715303098824,407.088596096349,467.919999999771,469.170374008103,487.017882343104,496.440825148499,403.191686501991
,76,474.110421519093,488.497073905232,497.546665215392,434.283849858486,389.252813592823,384.167378279308,410.262088205766,442.162085134195,420.045073928958,467.669222292944,485.5622946971,461.884743453549,448.982468570392,497.196402419608,510.067058852875,400.700250632709,426.656709646364,400.116641292734,392.875550884642,415.555891286395,380.37605618432,470.460155384729,446.645035269073,397.89543552868,416.964538209356,511.647222626649,484.916950365373,320.733042402888,292.854233629501,385.638480929123,354.139015660923,441.938739212614,444.724111866932,481.672587616854,457.589084396311,363.028180269014,481.463974835495,494.333307852002,496.092316234122,415.630966879842,447.700932739094,359.246433905681,422.23337424576,430.845670958811,402.541882817125,417.968710709776,422.902516477484,411.950697346192,355.333973050722,520.385756248073,524.223347258917,480.883911802412,493.718860939508,472.665521942069,467.007613811039,465.828549981396,502.446109483793,442.361344059875,394.482261751393,406.131945282017,37.1195939000643,505.385125977849,472.068683313621,479.608825930261,440.617698206101,394.721920339694,418.079408330877,451.664266460595,471.097970054049,466.787734718096,420.495181066649,267.815005432146,57.8280232178731,474.940751262772,418.932502635326,478.011938408814,421.239585943747,404.257545478887,473.047479144143,452.422885812138,498.794192611693,474.205331218435,452.447133933592,403.454184428469,67.2000869252314,28.8264324952467,197.514143366537,440.276752187721,412.105063942983,437.732543806871,415.804730282952,471.841217156617,474.12001001586,492.95009550127,502.690399568491,384.145909836384
,76.5,475.1597786358,485.227113309822,500.229667516252,433.322977880291,385.964891486505,384.897808655056,408.319676775746,442.763748305769,419.10816425819,463.03055533353,488.094036239732,465.298843396269,443.959745458727,492.603064984353,507.259171348826,406.127242695545,428.85294159939,401.385549829799,427.946124247842,416.325218542919,386.111999383596,471.268902499824,459.191067472676,403.820371286839,439.343029444531,507.047667577132,482.340964692437,359.437303707378,274.475011804486,388.262477281534,388.097486434374,443.575825501341,449.142565528082,483.077725914632,454.904356473221,392.856627130243,479.379015145662,490.87768475383,493.497076252112,417.259201307158,449.361036505431,364.564827748251,427.199983674839,432.495508076043,406.417684715821,421.550504318453,423.912564695745,415.352604195161,315.429863124699,517.845618718114,517.632536747617,480.382650148574,491.248824712313,474.222507015968,468.023590043803,468.34111356245,503.598647644264,448.143591223463,401.336808179066,409.612846524647,31.8458826592813,504.633590792838,467.45274094916,485.091832248394,445.132031728468,398.070137623669,421.737369780061,454.564846720687,473.214692887276,471.210977528528,421.726342536357,309.054205105119,54.8634467054043,470.635255210831,412.208690217908,484.613365860573,431.448116577287,408.864696796001,478.462202811381,456.758376020279,508.16283161226,477.583736970962,452.732604406076,404.359367542845,68.2263283718721,24.4916807513088,192.371610537838,443.569711364243,419.143805115071,437.630534599745,419.65969681784,476.905123568393,476.990182764874,496.136080672621,504.220601914753,369.167253996346
,77,474.077077312597,481.234446899244,500.074818755934,432.683824093675,385.645174173332,387.044051359556,408.462007963042,440.544882123958,417.736405557681,456.340160477796,486.876503568006,470.697707110476,437.256025331963,489.454855437911,502.882779378263,410.432019821048,430.297990974562,406.29659758185,444.243486753657,417.172869381849,388.99346123844,467.170581004267,455.541872677057,407.587623560016,445.758189669108,503.784042929215,479.948156105424,393.705255443469,261.200046892963,393.230536924465,417.092097914249,443.832925085871,453.914387924134,484.57175799687,457.397233574183,419.870838808937,474.858888922005,487.903540791768,488.47790866699,419.515885806402,449.395004053498,366.648706459304,430.870979019193,435.97017327987,407.548874811223,421.952413119308,422.130017072671,417.418696794844,256.333550725244,513.831956299642,514.102265465085,478.787676707864,489.468208390444,472.315318860161,465.754731894784,467.030643587525,501.968825309352,454.418007111823,404.998946483243,414.787970171665,28.3568758993813,501.942839795563,461.491186524276,489.202836575183,449.547904883065,400.876678203724,424.843201238085,456.611129846204,476.524521845211,477.966388165534,422.786423487999,345.680725592563,55.1829476209044,464.957455792415,404.663893440786,491.670883109323,438.39206281421,412.180569895595,482.674244472437,457.276757977158,516.496132634597,479.060237160028,455.112927195738,405.25377671832,72.7733900534339,21.4910877649691,186.888549912147,444.075760580434,420.17331490655,438.822843583911,420.654953216429,478.022676980361,478.025857206423,494.749927548724,500.728094313136,356.202137402764
,77.5,474.350808186013,477.690090012775,494.628561651819,434.167927867275,385.455311461722,390.59513496424,411.082028068106,436.686919112802,414.144593604055,449.578703030142,480.856701836572,469.708323722139,432.27309109493,484.611953433576,497.494006585546,415.054869421885,432.841429399813,411.706952777143,443.378851563772,420.667308963873,390.983786557094,470.152693149777,454.126299637886,405.444386447117,440.512840998719,500.532020156455,480.301044462879,424.004734115096,251.906840682057,397.763656022931,428.041166207389,444.315600111825,454.54359806497,485.098720113569,463.230885469277,439.502207855366,471.279951623942,483.423115964208,486.216065468138,421.214734453677,452.522757893108,368.041406717982,435.402349349394,438.810692611412,407.434039797789,419.49051951052,419.208518237631,416.084421334922,190.972425056062,509.548580700688,508.894241793845,476.966268030058,489.919630406943,470.942369776967,465.344168779036,461.384695780999,502.877525589866,455.126398314769,408.173870449324,418.416137268141,26.1784352839439,496.795605105825,457.637224931244,492.22419483208,454.444026354255,403.713718831324,430.161640259384,458.702915502118,481.375108864138,483.340821896664,424.856025991197,379.976532120596,55.2537425240089,460.402111640542,399.199139287939,498.280325996509,442.885944658216,416.259072149116,486.093427120745,456.458700725963,521.776481569962,478.901291786591,458.555767818337,404.649026833282,79.0593702019639,19.9169756645738,180.989797517008,441.305959058683,422.279449406038,440.206243303785,424.264475849386,478.787275176447,479.207706891028,490.204042347021,498.903439592425,340.446867090131
,78,472.242003781915,476.079352961063,492.074496750692,434.384026893198,383.763385710292,395.60297237898,411.325066173387,432.116107566314,412.14333731395,447.004270225584,473.723397257993,463.165264267139,429.426638587928,479.595828709885,492.972741976482,421.386360587759,435.328356362851,415.033571197837,445.455372667168,425.310486998448,395.055544926685,473.131323135786,452.222933377565,402.784308334919,438.24274021985,496.548265818631,478.843793511746,437.023330500821,275.361555218752,401.602537329927,425.834500485865,447.202632938158,454.719475689391,484.159676020398,464.136049967733,445.498874948175,464.905645486106,478.524111637205,484.352672759865,424.206442087173,458.517599952685,372.008265416262,440.96508282565,441.444207754991,406.583561518367,416.784034513184,417.409989278823,415.837664400355,130.640463082305,506.638133440566,502.41592215804,475.577067240793,487.090441407883,471.350114877202,460.444403523601,458.757548258711,500.147903368532,458.046111982592,410.404237612937,419.970235085926,24.548210442769,491.887886463999,453.051181935444,498.163665831797,457.515973622049,406.172077970881,435.556450767006,460.488155543384,485.496262493032,485.41500223086,425.743936452409,412.198502053908,56.433417367519,454.138009006535,393.375881806143,505.889507985816,447.965559241291,422.227162945768,486.838426148559,458.795584520007,528.485745356224,480.740750065662,462.444084173107,403.548108998808,85.3231920495779,19.2450842360319,177.006466224726,445.441845522811,426.572454810523,441.197287496138,426.974166166962,482.281304348312,481.051039982488,486.451190881792,498.300760818721,353.159020241358
,78.5,468.429205480105,475.420829209404,489.423879048461,436.547061535436,385.9606444809,398.553527698665,409.547466780007,428.720476038725,412.691200791781,450.99709379812,467.910198555986,460.56931156777,426.14217383876,476.953382692352,489.459556653864,426.350744410836,435.991777875516,420.818998825274,448.521846779934,429.505145505017,397.437317756908,473.513807618245,452.285981867685,397.756836597304,434.522632541062,492.77648855857,473.429977953513,436.999489647801,323.050825659419,406.759614888654,426.247608560988,447.98830223759,455.463591104919,482.014130903324,461.448921974946,443.583466541902,458.603162485088,474.90581627193,479.581799577574,431.682942473558,463.269421028454,375.274493606073,443.36049109428,442.849100938801,405.826291176274,416.165339815508,420.344505140464,414.551212864542,82.1195345487378,503.380120440275,499.949593240631,474.611863924931,484.889069469457,470.38492110671,453.84254617338,456.512000007535,494.375439097203,464.873436279341,412.804160101811,424.002920795914,23.6505800897328,486.471765190713,448.526546424418,505.781963588279,459.472097705345,407.91071447795,438.682237942875,461.918984317773,491.15877749749,487.921898782494,427.122818650224,428.667254800832,57.5895627451608,447.162719782371,384.59533925544,515.47553232118,450.581771156191,428.325450518288,485.465727378889,460.977236392058,534.647486967013,484.285391166751,466.907202632848,389.025148946375,87.9245242784367,18.8606315440636,173.527601033484,452.515103623172,427.196687012166,445.888650470946,426.467969378603,484.887702626167,485.751749766675,484.651080733895,496.424527217135,393.990820159037
,79,468.44026955877,475.258243343219,482.626617461536,442.685488154114,392.990135147193,399.600266571244,410.643512124144,428.783756140127,414.448660814746,453.103239390416,464.435759036523,457.098479343745,425.376852554944,474.684510992226,486.793348625626,430.839455179774,439.444022904237,429.030010660354,451.428105609624,434.824439594261,398.322003264419,481.810953532411,452.902717520537,391.641572326805,429.562783227875,489.377640493562,469.709059266594,441.297466203361,363.271973428518,413.184123472346,426.300460085195,448.738453605074,454.190844511406,479.873494782821,461.042109462735,442.742964496802,453.77371445583,472.793353209291,475.29288046067,440.055798455014,471.107449729026,378.91258629426,444.189818272438,445.228326095623,405.249478220429,416.638025946613,424.102268316992,412.731194967274,50.2268762700182,499.247437043583,497.722392691398,474.610711790282,487.990489272442,469.988950778187,451.626353523643,453.473418656912,493.119749017341,468.106121365822,416.88354651464,428.18053293211,23.2095916955586,480.706836365457,444.707910640067,513.342706195911,462.796486386236,412.608180964591,442.094840696197,464.924928499403,497.725273063559,492.867671049702,431.032437979525,429.785319906023,56.7036626311419,441.735823558403,376.533086845053,528.172669754993,450.425402084819,432.670958244835,486.551622179983,462.145924527287,539.738569790176,487.99275341885,470.307882333617,362.489140467032,84.8979127890705,18.9721443577375,168.987880266209,454.561321355334,427.331006953087,453.042328649468,428.350875087522,487.623579650723,489.598775748762,486.534998380264,498.965967898735,432.298303353164
,79.5,470.6420944975,474.552609639018,476.315215580791,450.549696400731,398.458887418925,402.70555481379,413.256776213476,432.899534683731,418.821811429933,452.037966221289,464.706664177412,451.072392130274,424.935695688485,471.225327023169,484.905912454675,438.314071481902,448.158712961139,435.232907005494,454.044417421469,442.840356585001,402.171872200565,494.041150215309,456.01057573197,388.792310715089,426.391745714643,486.895899960556,466.925012995016,447.063358943302,402.398668428895,419.032435353861,427.827367103778,452.40908714785,454.369660384554,477.219977918799,457.580629037559,440.795283634267,449.734730274251,470.06320419065,473.800617765728,446.786233832117,484.238070573885,385.737812863518,446.919589218753,447.483621826561,407.318535394385,416.515096565219,426.768965128949,413.714490772897,33.3537436241617,495.409000890143,492.857179730929,476.075031254793,489.348070782371,470.864532357929,452.092303464215,453.633492961938,492.88828355438,471.857045802872,422.455527667446,431.07169088275,22.7303023534772,476.57316819768,441.404025018665,527.333927963054,466.356642647203,418.381635239824,445.411233116566,468.12582907473,503.494858648613,497.355823676612,432.551610651271,430.044634666025,54.9439888642452,436.58755329432,368.448991546798,544.806721651839,453.940567527407,437.177356889033,490.149210311639,464.852438503061,549.128187916896,494.004329600633,473.692968745355,340.855643492047,78.7716803951245,19.1929602396209,164.728446579314,458.279300185729,431.709300233266,459.705346372402,434.714900855992,495.81106977569,494.179777121067,492.50384827978,506.599811811642,470.431484727508
,80,471.23534699246,473.982737492672,475.468760732399,463.656236834828,405.390341886447,407.664422298211,416.194055213507,441.277655085344,426.960301136982,454.381583820345,469.541140360973,448.699023426732,422.534708227065,470.241918569667,482.786173278817,448.826435834763,460.651257706755,442.921555700096,459.619859972404,450.208586672498,405.799431228466,502.186475425974,464.070117317593,379.40301744319,424.387228989632,484.241909136599,461.360865367831,454.841534997765,439.713044562538,426.063264771801,432.012769769703,455.796976421908,458.44404897036,474.423879644185,450.829521811107,437.340960743512,448.122583390015,469.20930944884,470.057426870755,456.730930368173,499.938160277483,393.320409158147,451.81573157108,450.119429118029,410.050580241646,419.101398415488,432.374681543787,415.407040046834,25.3221108358667,493.096012839312,490.295685199376,477.793605504202,489.814110734272,472.230876816046,451.83141669344,457.799408596894,492.143762448748,481.711601615621,427.069584857895,437.365938587497,22.3579029500913,474.094726178322,438.25958166917,552.358541209028,473.429776130769,421.320789548753,448.885126581187,473.876303204602,509.274933228665,504.11556458685,435.280989129335,430.064377026361,53.9544862114524,430.963292144158,359.429627580103,565.648978497015,460.687472093544,443.680842128892,494.030310071314,468.817992276586,561.784468216357,504.064686451171,478.662885700215,324.410522316575,69.0477286264598,18.3882553295203,161.601977685213,467.367648113981,437.233092003043,464.787801560431,442.92275444219,504.652068438581,505.081771007694,501.581433321327,513.958039196564,508.873955745944
,80.5,473.862059186247,471.065669647586,474.07972136273,483.918704247727,415.846786256349,413.252690829675,425.166005070297,452.274443684234,436.68102665691,455.768214479316,476.385940963935,450.943083423741,419.692157413177,469.403396032268,480.249384095376,459.754097104154,471.88294984552,456.80080222177,469.346953049836,454.26279647776,409.330256547182,512.233486000711,473.337700638776,365.915276180063,420.580557298308,481.446679436365,455.776171127257,467.715254022572,461.301048772411,435.583315875237,435.85686133585,458.512157886426,461.027576778768,475.097708047029,447.981034015938,436.95021082982,449.955101712651,469.172987411513,465.438670601784,469.701480978493,518.724373092321,399.240961499996,454.00393949927,454.17111234758,412.288396118661,421.527150421974,436.604953748459,415.139320166777,22.2913597976196,489.661729774271,489.296128479591,479.060255053489,494.042045484638,473.17190532004,454.690557611428,462.019881931215,498.778179920847,490.662393280548,431.727794094582,446.404312720255,22.4070487168729,471.572525827134,435.750123178886,582.976824660715,485.395015959764,426.291218198746,456.160038622034,480.923766772016,518.728755408595,515.075082667747,440.137993242133,431.308098546324,52.9279023125356,427.980149618087,352.078895308355,589.662392424222,466.358619014949,451.078350128781,500.824038340611,471.885026011726,573.934622704564,514.311441688085,482.551020155088,308.766334675779,55.2947032726416,17.7393055335789,157.49601325701,474.932882215858,440.339717770346,468.476811483107,450.183400274182,517.449576058149,520.846111564597,512.466260768906,523.283772800251,531.014758186022
,81,476.521245675471,467.488711775525,470.814928605293,505.598190466577,424.385956440335,421.233783322066,438.895155585617,468.393833575241,450.426236460171,452.444887224183,483.794107707675,453.142121172065,416.655652053133,467.153446687229,477.634580485721,476.872717619935,487.268171748211,472.766125166341,478.499144799355,461.604132879636,416.240157094209,524.03159279537,479.158808743549,358.546173916669,417.94220452876,479.731367465769,454.310242134362,484.507997765094,470.838384267201,445.442438665666,437.301423148587,463.557304452276,465.908880085548,477.382883096072,450.412222734428,440.426703459866,449.68746294248,467.460198883241,463.521379696128,482.330746440099,542.330678197819,404.014987823603,455.073749484594,459.407859319228,416.892462697288,421.26569136747,435.326209988176,415.832362092966,22.3766281904072,486.54812751672,485.135012615413,479.399698571184,497.966298037927,474.102498481748,459.407236595449,466.049597339374,510.857302945289,500.056032932332,437.488057190965,454.757794395563,22.5585621048107,469.434868017851,432.200089484325,619.335586248203,497.723900482261,435.293749349933,465.221272786109,487.872939041923,532.859741538532,525.191181506759,445.352762439159,432.977614001135,52.5816862798017,424.281137559938,347.219520341568,616.214034249795,473.14214427042,458.648282863313,509.223953186543,474.479333346128,587.699899461907,525.829890410371,485.598195438994,325.959069332779,42.9108161130899,17.53343127905,153.096957335009,481.919619253227,444.768893833284,473.943231636958,459.806787766759,541.221587889974,538.833969724672,522.155888116188,533.474624373586,536.82179977687
,81.5,475.76230694989,465.243071222998,469.053948359216,528.358504781265,429.915964184389,430.734248854556,460.973847731404,492.797902220702,473.139365173564,452.525243677274,491.093615941048,453.087653332768,411.708112692951,466.261093978938,474.931198559963,499.685293429024,509.289115127594,489.945717548928,485.020844308835,468.972414605186,424.132448886114,528.707431240607,484.380422610764,350.505508504741,415.72585664027,476.741294343293,451.261800725402,503.539123238264,483.896844282373,455.799647140029,440.466454469492,469.232210182475,474.507433160348,479.205481142054,453.301608439152,445.450497803735,445.561130322446,465.749833721362,462.043793379063,497.990040142581,570.326595085689,408.262095619168,460.07623599867,464.497195157379,422.165982635287,422.614066485869,434.311046497652,416.636215523554,22.2262828030126,485.397429524935,480.709563954427,480.798643354451,498.930250948867,474.25647014736,463.68693571598,473.023839360842,521.85288098241,511.84573002028,443.704030899794,463.781289284119,22.4190004612209,467.205796489724,427.978396836117,667.824851717697,510.018566659215,443.264817068816,472.399742019005,496.335493723859,546.383007656525,532.420064050462,448.618382174216,437.97110332996,52.2777924867316,419.371493240791,342.715627560987,647.639610192556,482.893749331201,468.348291569989,514.157698179121,476.379887320146,601.232464478051,539.990408068744,492.209629354062,373.458906859625,33.6081795877137,16.4263167588238,149.665084341923,494.462864786426,450.932945250904,479.185876684799,471.860091690487,568.876547126543,564.071049541205,528.710981377253,540.360673561889,540.654136674287
,82,474.308602216134,462.860792799928,470.707892911067,553.987785962926,435.966744827067,439.021490055778,493.596477996612,521.092489453401,504.437549284596,456.989074640655,497.029575657776,451.663530943716,405.633862499178,465.403257026909,472.313811514261,523.383929584752,531.793991724593,512.020225235272,493.036380554558,473.802163604885,431.044159206629,532.730309296984,489.301342059997,345.211250932698,411.943173916996,471.483255731232,445.978768487965,525.461985194246,498.581808269736,469.007357967102,444.37477406432,474.33719779393,480.419964759005,483.255669209602,456.406407744218,451.907324094686,440.513453712044,463.730701322551,458.630642491132,517.081562343872,597.981623195315,412.634255619912,466.081715933095,471.869281749492,427.762576364597,426.355492743703,434.35563434558,418.12823694137,21.0818866191523,484.498713432803,476.606291194671,484.305605689575,503.113637660154,475.767033689431,469.742099088368,481.429821203758,537.027502852133,521.342377758593,450.399040095295,475.298348872037,21.7204164665455,464.951971831678,425.072744371612,721.028669254786,525.37868171614,452.350218305963,479.740879152557,507.652173753671,560.606221547323,540.361455935976,452.316406465664,444.578168632903,51.9981016118658,416.490469351592,338.470980617529,682.989527418853,492.140889156503,479.604057760614,517.055344678136,477.109385832473,607.677015504659,554.746746666411,499.349334759202,414.832650621173,25.9871889499136,15.5592302423768,146.94798889411,508.112116823539,455.877844724613,485.27028376989,483.656265789877,594.871239001361,592.259280963942,532.168233137076,544.73349530223,542.690285256255
,82.5,475.400016434568,459.484519854623,469.93702293209,575.12054062229,442.650806058069,448.515469423465,529.365629882446,549.214299399752,538.827223516176,458.492726247156,500.804918493638,448.776603475059,401.964406082658,462.958815496893,470.298793418212,548.493476111284,553.311967709969,534.876359398373,502.728598648961,480.5732562138,439.523887221313,538.530259632561,490.685610067123,366.876207249828,407.462570401569,468.004896791704,443.187683900358,547.055505105517,515.226428164409,483.615600958137,446.47924938144,479.900744015333,485.253086377898,488.43401260148,459.857110331841,458.253873284659,433.095101414378,458.014153467204,456.716407739075,535.448495912178,622.601160030658,417.601279059495,469.965402497984,479.29779341644,435.041043564393,430.691727530526,434.845570292266,422.589980117954,20.3852659034511,481.599613385546,472.868925519919,489.719813275855,508.955310124981,479.879038420969,480.877574624767,490.325239647353,559.062162541222,529.559940557866,458.998888789607,484.431917022833,20.7382229253529,462.140172742701,422.259194084177,768.693686993072,540.136546022803,466.557185221342,485.433001823622,514.720102919756,575.30993940596,547.59538421585,456.72912260932,451.17194497302,52.5911772076111,413.26413368191,334.30522494779,717.704286768219,501.749770532392,491.221693570055,521.327570036933,478.652143759569,610.6080918969,568.877206254102,506.001027853138,455.342281179737,21.3508247686175,15.7725594477267,145.327840139365,520.307811151936,460.728021429068,493.777626011291,492.289286113438,621.953222083929,613.696685439017,531.198036525532,547.644638345936,543.871450413402
,83,476.646689363805,458.175640756919,467.726395802756,591.816889094771,447.391311424493,457.006634248856,565.63318992213,585.195920431135,578.660213360389,458.106339773482,504.473522343391,440.664416187923,398.032816202251,461.681670183577,468.126799382591,576.983476627183,579.894219668832,557.342973361599,509.701697719835,490.606967263295,448.685053982279,546.706981874184,497.596919876694,408.829212836692,405.369156997731,466.450387148991,440.27451764418,569.148606694563,532.319149278227,497.843155860611,449.850964880565,487.333716780898,495.586380829705,493.564114245718,465.402619945547,462.778276816806,425.557542875003,452.641288381525,456.571455521957,554.360326531871,645.425168445816,424.338023733477,476.000358501994,483.965397157584,443.195060728689,436.473704117051,439.624715645226,428.750457637791,19.924567353191,478.945550897664,470.756358543121,498.507382917431,515.178140665727,486.424912578464,497.623141790594,503.487887100147,583.259801970387,540.066494037491,469.249723972045,492.921626031199,20.0209324404547,459.247119741999,419.47978386163,815.462573724171,555.420243900141,479.937275043427,490.448235882324,519.432542693334,586.175903061671,556.73047458017,464.309936566676,461.11362547346,52.8792917617801,408.949387833074,328.958312208041,755.223462869651,517.05151017714,506.51916822948,524.66877033392,482.374869012615,614.994195867153,586.045958303972,517.775687151116,499.10146244957,20.7700945069927,15.5910932554348,146.59394004197,533.085715016025,467.676343748279,503.212163642857,500.493064044405,644.102798707938,630.389862525108,527.233459083162,548.473187079953,545.776810449445
,83.5,478.776578737363,457.764968003323,468.192843210307,608.132620095434,453.701263509666,465.146009556162,614.751952580904,633.532212825185,631.213105647194,458.031718306751,506.126600753003,414.403052211953,393.085765866428,461.438683937456,465.598899288113,604.73697293169,608.472743236915,582.727516683812,523.298306510551,504.937950668354,458.338488376997,564.852350202314,512.578208471442,453.823445751685,404.381584374451,464.0156908641,436.715571603791,597.793327396884,555.175485587829,516.433445340681,462.003561800862,503.684606758938,512.782299825096,501.236133381692,474.877257241163,468.732363094483,422.36360280708,451.331847262211,456.378488407919,576.292884132445,669.570096093954,434.175063403654,489.922908017855,496.107373419428,453.741125342136,447.095874169187,448.561166223375,439.860813593666,18.8163911215245,478.71140124623,470.107690143504,514.991739900028,527.60276777276,498.778780356346,519.524884454831,525.920946316928,615.510249702384,552.220497335137,480.300990814169,504.998891717225,19.0187816102111,457.950578372252,419.076044457957,870.649289410831,578.283054991542,495.013616457074,498.937523561388,528.756745477284,594.746089709697,578.976414911076,477.338397505225,476.742143997818,52.3304061886793,408.093304715241,323.928165655659,808.60334701499,540.29694536868,530.415524053125,532.404163366316,490.056182540701,623.726474146927,614.864119258993,537.501354822338,531.100593577057,21.1751192842024,14.8852910785045,150.49650361924,549.99243265456,480.12808649662,514.848492871363,512.208907465783,659.998660652599,648.890942490486,527.963842585418,552.752318368158,552.687389023927
,84,484.170182837607,457.490194028205,470.023574226481,624.724488095928,466.215988696975,477.365670307513,682.966942218777,696.126870923535,703.759550340939,457.676691013093,510.342496604152,383.638007347391,390.667076687284,462.202374962696,465.731685339586,632.181475501513,635.636744668587,609.926686563282,548.693019989192,526.680972222366,473.440602030653,594.192245272406,533.58999071892,509.054212368571,404.149336912868,465.866929489295,436.528839129636,637.702406891426,588.036419377419,541.743379992877,481.979248325234,529.002801732562,537.748539537236,511.955650388534,483.792914280593,474.905637337389,422.764106066932,451.888212849979,457.541636682758,602.186627146482,700.037507730402,446.045591012085,509.585242651596,516.909409747061,472.726107573684,458.036450041558,460.655706960546,453.586109725833,18.1321245701346,479.31188192571,471.184281920271,538.739325994751,548.096974424781,519.916487814915,549.783747511686,556.971728352396,665.396956432694,571.994797420643,494.620263442337,521.278519384948,18.1782889670786,460.005866542114,422.215087901695,943.860750965616,607.390229197301,514.06758469512,510.318174496154,541.57354101276,611.660792870484,619.061506739892,496.980874823369,495.682982149001,52.0663831212061,410.53830129067,320.19713801112,895.552131468686,574.272419903841,562.234241058045,547.222514817109,505.033228753698,643.557647686975,665.920211161284,565.926320712162,558.365056929436,21.7327810112049,15.3469026379639,154.592303755552,578.634392990732,498.736308992308,537.464283075344,528.066693903508,684.960378864821,675.22398973236,542.385769357503,569.090592045003,569.582205038015
,84.5,490.323219769081,462.033110801731,472.640685711767,641.194623207283,482.421961619679,491.61593178176,760.457802476857,770.986557979136,792.124157659676,458.372908008587,522.35302146938,367.326189715506,389.206375107354,466.680445338171,469.12200351938,665.22034634174,665.613516283242,638.474881765595,578.311108111445,552.562435913565,493.023837451982,628.232642433453,559.820570191772,566.308794899239,407.717212400942,472.538036889247,440.212535193821,689.029807534819,626.849184435256,571.316622812852,506.079877370499,562.840527079431,574.985750863384,523.369909645218,494.471506948215,481.352241343963,427.398050390902,457.228842935097,463.735886827797,636.225786829317,744.562805830617,458.843855336627,535.630752298612,542.766466158785,497.512578050092,469.325370029144,476.164704473768,464.593634200914,18.1573978713271,483.140020956356,477.166692167955,574.652708239208,581.863805091166,553.83189887705,584.763658400687,593.611531161794,724.836163479266,606.309096086033,512.843916426942,542.784634443257,18.2659325637884,466.535656324601,428.674191388738,1043.66294629565,639.086584142085,532.116476486873,523.831507433516,558.494480038504,638.536327181797,674.811040007227,526.36780661986,520.729895565945,50.6930388930712,414.679917637916,318.339298065898,1027.11755776561,617.700700213052,600.324350533315,567.840760447078,526.591879680746,681.051046764504,739.958704418938,603.798486205966,599.825899288773,22.8312476053653,15.7971224109318,158.260595793077,624.11458383348,524.179509426017,571.263901080843,548.045570649813,723.660674792254,713.563807583345,585.699354380748,610.180668986463,604.636302584324
,85,497.27054467624,471.038075767554,477.464700757339,660.545999836041,500.031468073415,506.056953805857,840.565334752761,850.573169987049,885.898661005651,463.894446920355,539.999129583055,364.086830049377,388.546796995016,476.34579429806,476.420579021403,700.767814631102,698.516389966677,667.958022469743,610.000271387176,580.152989298528,513.251011719348,667.213013750425,588.712014618975,611.908710517267,416.643839195002,482.586736915218,447.518519491489,749.634296613659,668.866964152547,601.93167220373,535.457122647107,604.238550982985,620.647527855085,536.887221325711,509.992230997183,490.577032055996,440.540495931351,469.821102942302,474.780990769068,676.833336388259,804.290326169121,471.083313101562,568.078563102377,575.567239102406,525.228264960945,482.433236821934,490.061740544406,475.088258032689,18.2133195087732,495.227411008425,488.442706621021,635.399845300919,635.960925617749,601.190343699292,616.240746783737,631.658399322505,782.600033391765,650.707452724173,534.269012798305,570.723530543377,18.7814755828923,481.103229094446,441.786421925898,1156.49250811496,670.226246393263,547.458607357878,542.984340242702,584.972960977886,672.786582934767,743.646933707933,559.871870876494,553.008995405618,47.5387201179208,425.835709087315,320.394865943181,1188.38839104479,663.286068427075,641.674544006859,592.568179050069,551.682486266859,733.385310154446,829.568996538502,646.581037243321,647.740863466389,23.9202978540691,15.6316713568389,160.194830504589,685.423664498021,554.729877965096,611.270381371895,575.139442192365,771.152057632664,766.473978209527,686.529261228017,698.438947005438,672.390417715426
,85.5,494.713026246495,484.959851931318,489.454537698776,683.183446431953,520.543858099504,523.899967995372,916.568210765272,919.443074008895,972.118100585265,474.600319999554,565.96534636462,382.089406617016,379.582575063645,492.085685764622,491.771067014014,732.70296517099,726.993416846705,693.594691998679,644.719500453662,610.178632717044,532.775928002043,705.76708629217,614.54824878629,649.043307678007,430.654867199162,499.52933472143,464.787601213811,809.618397143573,710.762454357417,632.082125968779,568.670424998219,646.469002086269,665.540698277673,552.326474345821,524.767162435464,503.767600647105,460.361875474619,489.974004662375,491.785039284893,715.574037612017,869.52615347505,483.923608835259,603.714730425147,613.656087613669,555.59766173644,498.324487832921,502.127551383393,488.506202800367,18.3619088596496,519.02070483037,508.161275509828,718.437195110378,704.870156596895,657.09838368248,638.142718540415,663.136792216598,834.526225149879,697.477830918574,557.112644133823,602.024821507697,19.3305533288573,508.470448470647,465.737112224418,1254.81392901731,695.4968172566,562.174733946885,563.900372614884,617.48110653837,714.588013131262,812.80176068439,590.6350265232,584.477806509829,45.2127941019002,447.416863997142,330.065521912934,1347.24368267247,704.303833624794,678.99770176693,619.738722340078,578.395654968651,793.083529502899,921.69300965104,686.749840151902,695.657918841589,24.7490915850037,15.9325213483272,158.453878571623,752.870816425305,586.832513519629,654.459989006759,604.627584025095,824.409301662484,825.33562320633,857.77045667602,844.249681937446,775.762459514412
,86,493.312866754367,511.422095114774,512.807275780034,706.548825236024,541.777368087779,544.975912326316,963.133785021167,956.842069805224,1024.410667644,490.021926965187,599.619984642104,443.640222528916,370.221103128436,519.831898025183,519.978924746194,760.236498049185,749.504875920273,714.321870506281,675.822488769083,636.449999075827,551.298520981819,734.80343512144,637.84127023568,679.998066812652,454.20403880732,529.516769724113,493.537469108205,858.510113038347,746.388980726833,656.293464823484,601.013054773294,683.657204641283,704.630956341638,567.44886117034,537.748241426546,516.052571421818,487.022178223467,521.624182853077,521.976067715678,750.504702834936,931.99809498857,499.430405784561,635.47128508624,646.792686589079,584.127621640521,513.958625420154,517.395351835027,501.895537091867,18.7483803929426,554.362341002514,544.164619120249,805.083189432567,775.720170250649,712.867824420257,648.012436835704,678.327644941501,865.253211909277,744.735706358423,581.983152277836,633.074486299728,20.2081395210913,551.029124912573,502.532983364836,1315.0002542746,710.821924698492,573.456414250192,585.43452438317,649.59582706667,760.421613379022,868.396373838982,621.016964268705,613.283149291339,43.632175112755,480.788469977145,350.276334860462,1470.54470256204,736.200066494793,708.089366052428,650.439984998905,608.248444977248,850.823070439156,996.244292411618,720.610784522184,737.415476953747,25.0238070626367,16.4267334724759,154.681976922651,814.004187980757,615.154379487921,693.294969794504,630.359169716036,875.164313544424,877.391371606742,1068.78032738286,1028.87179717099,899.41846903076
,86.5,516.981451659886,556.470531352449,556.26741042266,730.324373679691,566.390985033458,571.244100809652,953.512506825815,944.407995868527,1015.48069960627,506.483404146258,630.83164622292,526.718541295653,383.246615686356,566.235289881406,566.786791420589,785.809272387505,770.611758907972,735.591060018653,702.933332744477,662.933818219524,570.439217395254,759.685522179802,662.887289596717,705.354138288796,495.018210002862,575.918778825696,537.444669238654,892.992555473614,774.908982502875,678.189327897496,649.761975552496,737.607717831749,757.229493709202,583.568488478124,553.567607295054,528.734616284753,532.092062712926,571.323028590136,571.578714186976,781.643558884578,981.452283461755,521.113759357081,666.355815070083,678.038032409148,611.28757953986,530.317931373321,532.397469638465,515.834090125087,18.9943453477038,610.251060929444,603.08346520501,886.0839438061,844.474499411457,763.946839653287,643.0335226276,674.561165032634,860.406202389269,792.244809979792,610.89757112199,665.169658657006,21.1512647820161,614.280452621374,559.119868418053,1312.33627948295,717.983447898705,586.024611895369,617.177566669458,687.103906836414,808.701955065088,919.524378857454,671.97938878488,654.375390988648,43.1115798369025,531.829310425652,386.07227549064,1513.85109265569,766.501738068876,742.636655500318,699.971131872315,658.389092929086,907.644177139983,1036.73794675796,744.867949554546,767.047539173595,24.4122472655395,16.1845295652255,156.314558141393,856.734147823732,640.64253144164,721.390285159124,657.291705460508,910.710269596803,913.585169380972,1277.06701784154,1225.41352996776,1033.67008201983
,87,578.501054727733,624.681071568881,626.884772437269,799.499158386765,624.217741815123,632.933634076177,911.525061980591,903.366744304984,961.851757532264,528.343156309649,662.454258458028,601.937058560564,426.38600334085,635.409326125401,637.221271930966,833.908601182847,822.856808267367,787.006251839298,749.478174910013,713.748147698609,606.455830353152,793.640925381106,698.044248602092,738.691579763627,556.339831327178,643.709426265435,603.984729892537,953.151074881679,833.5099417997,727.524261354014,749.367287145909,849.00819343792,868.03997710437,605.395805791226,574.06157497401,547.020698875672,602.167147616232,643.090371343149,643.47301220352,825.016438082209,1024.87979552516,568.965473177055,725.553436146818,736.139550936218,664.631768235666,555.018180175226,553.021634097033,539.229086724885,19.2788273798635,696.029223390427,690.526517111465,959.177320623356,906.264640660407,808.92861070632,637.922336014072,667.654003257155,840.488623234236,858.693977290996,665.303138060189,718.093336841089,22.4107097920486,706.386593362462,640.785641232104,1244.38542395958,745.285688033021,631.833245482034,678.144427750139,751.852285733389,879.506527427679,1044.72887472716,788.299211641602,763.054906263425,46.0872121497881,610.102232024164,445.802653732004,1466.35711727067,836.912633656222,819.915567656896,804.926433249574,759.671016028107,995.055144920523,1055.90494885018,784.659010381819,807.008256668036,23.4245802552999,15.9437109379337,168.447861087654,892.523867092563,683.12990499861,759.806709257376,711.64708235734,948.387884371052,952.564457680419,1445.07955078207,1416.01153224206,1170.37466028693
,87.5,666.884301433452,711.115365619783,718.478044491654,940.885823320089,731.409608440705,745.098130007565,872.947501724582,870.069514487674,903.738585717615,556.786074610646,699.512327183957,677.990738662883,491.261439896098,721.850786415343,724.951767353748,940.224544430423,945.659725663787,910.314445799269,872.749636347863,854.792741491433,718.084826285554,833.418772018448,743.935331893456,775.961344932681,632.21097187884,731.131849512476,688.533427479131,1068.81381893922,962.848337262955,848.57115842896,928.760090368479,1041.30438080306,1055.6468435781,634.661658179051,601.961571490212,569.340958537445,688.090189562128,735.0370869599,735.761376354728,916.156355297429,1085.18709742621,671.267642844102,853.956910603074,859.144497079805,785.629071664887,592.025873308423,589.980561651123,574.51753157608,19.9053656235313,800.878366280508,799.200356955473,1008.56935488729,953.025616521912,846.893899175649,652.381403510938,675.246829451407,829.577025140235,979.370015401398,795.891576735258,824.189552537317,24.004197957663,818.077150552152,740.845176961156,1152.27257180788,858.5558645675,774.85259692471,823.39247472279,884.834840929907,1001.79457738992,1238.3658553323,988.713422626701,951.043365394706,51.3968800344979,701.804215367857,516.758827767518,1360.8137283417,981.692044098644,979.395525694407,995.499146749571,938.517310549836,1115.55930487107,1088.13657565131,886.10125917232,896.288486574852,22.3685427497489,16.6214824349427,186.885813177363,951.413294491329,781.483335466704,852.291199856151,823.764614840781,1016.78566859712,1020.52465931616,1524.80521835753,1553.58552306922,1275.3081280735
,88,797.428131115758,815.148920936479,827.069387893754,1145.6092340851,898.529888881867,915.437158927594,854.85623014048,865.389479906329,864.993879771596,587.532359130098,731.029462153827,742.982869154931,610.247416901751,831.683604990246,835.73469779576,1153.56224895103,1180.97589919774,1143.18732535721,1127.60769666518,1120.20314967403,947.90319964404,881.508271634933,809.830625989202,821.372940916094,730.705512500688,847.06297797345,800.039809043448,1270.40090624356,1210.25898693312,1079.87243933012,1208.71431887849,1347.02881891564,1351.80660613485,677.702079679354,646.748179397629,601.04826665461,792.850579132882,856.044271504324,858.710136148798,1094.1621624374,1200.86489599403,838.425361434521,1111.65696265131,1113.25331345954,1028.35453197483,652.156297914009,652.939838922743,629.073533689326,20.6753115317764,924.210913825761,928.096112832161,1030.35614614772,990.510939687487,886.27126526401,697.952931983986,706.35509116502,833.643346300991,1232.46588932089,1075.66866608625,1064.23778807419,25.6250916636086,941.52734776656,863.174214618628,1092.90364071541,1110.53838624236,1027.62669754404,1101.28690623304,1157.85736054467,1246.54277961106,1472.32598074533,1287.81574128052,1229.5558422258,56.1662796564017,791.12341367914,582.330934462547,1235.28340578189,1228.14936521294,1245.84958092816,1324.86190743299,1235.40339232959,1289.30604850167,1211.31635523615,1123.34863139632,1109.94449474223,20.7629492469906,17.7513157956311,204.995968175746,1119.78192413846,1015.18375422478,1084.94879905835,1046.14397918431,1168.1555496638,1170.54123646899,1482.65493799288,1595.65338487579,1323.4612947802
,88.5,983.879173692119,975.931287399523,991.941204519576,1401.9154468458,1142.29740789958,1161.2071863269,885.63475619767,914.794232870066,874.962437771812,632.359574891536,763.044791347839,791.137204327724,825.834540580013,1018.89456716209,1022.84598931912,1434.68787280056,1487.75077205452,1438.55915763849,1448.42845324595,1439.95146037443,1233.18870976047,957.939409772192,913.00373114986,900.005472823184,899.932775036174,1052.65356270506,1001.39801194597,1535.81867768879,1539.03510452355,1382.99496665951,1539.26827028181,1716.31993485214,1715.1701284574,777.225428556072,745.260978071313,675.271140553716,959.54375394354,1057.52256032397,1065.11717576247,1334.84406874079,1362.56815285926,1065.42758470131,1478.10269978095,1476.93581552065,1361.33121981956,766.841784867055,767.525986637682,724.036489431864,21.9545033651749,1116.07708654651,1118.82443416953,1050.04328365359,1036.50461373441,942.954793550726,785.287495013378,774.830666021823,868.897629595589,1585.11555488233,1464.41451465359,1434.415685154,26.9451791513495,1110.31550894385,1051.78465398548,1070.17669968531,1444.61114245208,1340.08062540639,1454.63125713543,1521.99874032779,1575.98123849355,1740.01571929903,1654.36727144671,1583.965351542,60.9453449163832,900.655589813816,651.976336514639,1109.62841723046,1542.82477875812,1577.26570991872,1738.65818108199,1586.61280196032,1495.65490140525,1414.27391158861,1468.9625325352,1440.57192369583,19.9660123846538,18.9144908448993,223.784570888031,1397.11783877137,1363.17601093056,1440.38700425234,1361.77536955135,1385.13854829042,1390.6163048051,1341.32643280398,1548.02799569597,1327.56257296562
,89,1274.6934858175,1310.87508224867,1325.79334429394,1679.35839002736,1453.31043521077,1473.25872950303,979.740115738987,1029.35317068628,949.425066707701,746.271351796041,840.221014797069,871.393929180408,1201.75022576064,1386.8964938698,1394.48304235381,1700.52828376563,1782.01487952579,1718.82000625035,1752.42971244447,1751.45013043566,1508.52196947335,1087.42650863067,1075.91360524035,1031.24895191958,1223.88061079904,1453.15346760629,1382.1229891739,1783.92357036539,1859.65847671822,1681.42798296373,1823.16134582501,2030.99762995322,2021.85847616063,1056.58958001715,1027.24878567725,905.341666705138,1264.50185528954,1422.56288376322,1431.28947646493,1582.9757556515,1520.8975076728,1323.68141418356,1862.39641897545,1852.52233326656,1695.58781215936,1025.23063448138,1027.54584297699,942.485239108261,23.2587866272329,1442.48814617021,1430.14415862125,1085.13753582163,1103.25977310585,1028.32324971935,944.205814411492,911.651580710076,969.588573224868,1917.00919093908,1865.54551047876,1827.18242806005,28.1318494185666,1350.34078527312,1323.74581761371,1053.87585918951,1792.40147187109,1679.99050110477,1806.88609942813,1864.93848395527,1872.59081059333,1956.33511333705,1991.32336784792,1926.7681852762,66.5418207773812,1051.84749216498,734.336155585392,991.682111365844,1835.69472415993,1889.79310527461,2109.69239400362,1871.61848489899,1651.751858511,1606.2200845503,1825.06517247199,1792.59813625036,20.4429817141137,20.3066542849994,242.888984024306,1678.79737515146,1727.16525436147,1810.4982094847,1686.03553713675,1588.01193756177,1599.96183176562,1150.76885171339,1428.33081469789,1310.09665821061
,89.5,1612.55820678991,1746.50614823631,1757.20248737744,1858.97464115946,1739.5555718618,1758.46876668804,1113.30495817729,1192.03368139614,1061.38559118793,988.39585293914,1025.38773351525,1065.62360336393,1653.48875081086,1837.27543942946,1856.65702406577,1889.30038271576,1992.31608770613,1918.99967760889,2008.44067126607,2020.08973501607,1749.29172948024,1290.74954512351,1334.88283523317,1253.90092733135,1616.33097149813,1944.16454955542,1833.44164134355,1923.07449058299,2094.67765730136,1908.79730530718,1996.47718941884,2206.18956747563,2174.67578693721,1506.69455412113,1496.13846824351,1317.01151834341,1623.9170803536,1850.41087165751,1851.75155788394,1783.53284049275,1628.36507394017,1574.33407104647,2180.03392942795,2160.7607371749,1961.18327650001,1415.94364424279,1442.53104729636,1322.50669796414,23.8056365137344,1799.98179085138,1761.47970031454,1119.69368397874,1185.27372632679,1138.84934775996,1195.00405624111,1134.98763668376,1141.59182661992,2158.05703336567,2214.38984756495,2159.69286923523,28.3563201735886,1569.13818572973,1581.13658178051,1023.1621889243,2101.93964450694,1979.9129237191,2117.62165895301,2138.37963518015,2082.73008356312,1954.6752404418,2183.8115209598,2126.92060507422,69.0592089978295,1174.61375770456,783.60269053653,864.429951023867,2020.85346011852,2103.82174422435,2355.75175281293,2029.29838794549,1686.43932734244,1743.85865559842,2120.95363427628,2087.87083354158,20.919973488737,21.4229890982476,247.432278768516,1899.51430430921,2037.34644558219,2121.2413951087,1948.91254622536,1726.02245865514,1742.89713393587,940.280055653138,1237.34731794451,1318.2948404353
,90,1884.55517554654,2127.03063233176,2133.51753246121,1864.16156488663,1930.84026303616,1946.13372627692,1248.02728512653,1360.52968271137,1165.53139563388,1302.96735543528,1276.10056539629,1337.97306942933,2042.74010122416,2220.635963259,2254.55071996595,1934.50562959198,2041.85344356809,1959.28993999806,2107.15122946814,2113.10203310801,1844.72654761333,1513.68999704743,1630.28505374362,1523.39205176743,1949.95204308165,2365.59704999494,2216.20135218892,1905.75519396158,2166.75556902222,1982.46507195353,2001.41123517248,2195.56940770198,2140.99757819341,1973.97305650274,1992.26715778522,1778.52092056323,1918.71479156587,2203.3130516867,2194.85819698974,1871.93042174473,1642.00354347195,1766.95739677579,2343.45946521317,2319.21758391638,2076.12952110241,1813.1458768211,1884.14661983733,1753.98326024554,23.5642576204997,2076.84382787545,2009.09182451143,1145.66725867294,1273.15889832941,1264.03904026927,1474.91334947054,1387.03224589786,1328.05803303199,2242.51964152623,2402.01920786419,2363.20358535776,27.2538698932216,1702.5468417535,1759.06726596954,956.576103681254,2242.31186750397,2093.58080833987,2264.58242087376,2254.96549021839,2149.30855518273,1752.19357012016,2188.90074819835,2145.51422304835,67.8085760317352,1232.32350866026,786.304986823414,719.620628559237,2045.38445558525,2147.43024476841,2408.69354667062,2007.30112030385,1594.79452567386,1781.66101968847,2270.32410478137,2253.34294288471,21.1212318985174,21.2553645844938,236.883876337751,2004.80497895979,2208.84064317951,2288.95302368528,2078.43182869341,1753.88291975361,1775.85759073222,723.182679739696,1000.36817920221,1346.00373483869
,90.5,2076.96592134294,2433.69179209509,2436.24121207477,1710.7331730049,1990.07190418142,2001.92083358867,1333.32816471229,1471.93224128528,1220.53698743789,1608.96486419696,1514.85698233818,1605.43451045339,2336.79873683843,2518.61175572531,2565.34954959922,1746.64384093251,1848.71095812394,1766.7100489595,1927.984548104,1942.32439804392,1699.6558522749,1684.15971591957,1861.88907835176,1744.85650968837,2203.65903395064,2687.40468238124,2503.70899626134,1691.89252271762,1998.58590862983,1836.42324694793,1783.32777838358,1937.80860684376,1865.28429233034,2387.89065484293,2436.29686670097,2202.34756958408,2136.42078535667,2456.43950409561,2437.1068204016,1776.44511142017,1503.79239192105,1832.25850688051,2228.10632298147,2194.09588703733,1928.44516223786,2146.65463710563,2267.04050642923,2136.08422681503,22.7075117161412,2264.55744245664,2169.27788694946,1167.16049620301,1354.83433496565,1379.97432121664,1706.00093596713,1600.02980865714,1483.01448940595,2028.3144145599,2274.83196472215,2274.80935982089,25.2170777033507,1758.56553222077,1845.31126997911,810.242406577926,2097.59671531232,1975.31814788175,2130.10650406651,2062.48547579893,1929.85674437903,1429.21458569712,1982.46016915124,1964.58460612395,65.4446089504377,1249.31568527831,768.881534090851,562.298453727811,1854.70475080379,1968.42527874926,2161.05064412234,1724.25659291149,1344.84136202043,1590.39800312993,2128.3095401583,2145.65404038821,21.5316285675319,20.0416445615559,225.14269840896,1847.32582527146,2088.8095875934,2148.91598983379,1966.18164077044,1576.24438459725,1605.09363032128,521.200929168725,758.137574898327,1358.42815251173
,91,2133.46675669587,2571.41286209667,2572.60677117448,1420.90051204947,1867.59340115502,1875.67042549883,1321.64141845075,1477.33748067426,1188.45689474288,1874.64896994788,1722.40587099629,1842.67365575911,2428.33162390886,2607.12086768526,2669.08670660828,1395.5004360808,1486.89536855247,1420.95578304466,1585.15806808029,1631.52583865235,1419.35854088657,1770.77534286128,1991.08719810197,1875.76894850044,2270.54071244275,2774.45233295572,2559.84593281833,1330.09752262632,1652.61029109144,1536.05891322612,1426.9262047389,1517.4843647122,1423.2622200409,2666.14994082924,2747.77014031859,2522.13085543202,2183.02281048421,2490.53613271657,2453.66928392254,1525.27402622086,1233.09472520886,1744.65680757548,1867.57664085132,1822.60699274232,1573.90013211811,2349.54778757106,2522.41067656766,2413.93118329419,20.3885275791679,2254.8041361136,2139.21515604741,1151.97842671631,1390.36336488576,1440.06158917286,1853.4676097355,1740.07609411872,1582.11117715243,1575.13847137984,1894.95965426833,1892.57345072507,23.1154457676131,1656.6336816689,1738.44914691341,603.254916858256,1764.34532560522,1710.80573468662,1807.07386156883,1651.39248195215,1495.42499072312,1008.83581592412,1604.80533944369,1601.67191576963,61.1533638692606,1169.02539034212,700.427773287475,398.367352138024,1502.88195142856,1630.77610542509,1701.62105557401,1291.2901637433,985.887576848535,1211.71223514427,1740.6397678345,1776.74598630234,21.166955702497,18.7811344127515,206.093017059463,1445.36330752109,1712.96266183501,1737.67127482729,1641.67350322694,1233.4526278508,1264.0803863301,360.416495179277,542.479734804662,1363.84046179143
,91.5,1879.6442176855,2284.95425283953,2290.62913704264,1044.91820335083,1561.59145221943,1565.85431747888,1212.46294287138,1375.38767141368,1065.18728295809,1991.17804489635,1822.17412258548,1975.51407178484,2114.42345571093,2256.05418742889,2324.63755830625,1032.89164423548,1105.50720694996,1057.33686538647,1229.28585447554,1288.76599069986,1116.7569684084,1710.01781266177,1954.08417982826,1863.67998019108,1960.25448302428,2396.92783074693,2186.76941243265,959.788108078303,1271.18183039894,1195.82311005578,1065.99788231823,1101.18834622525,995.756592635584,2558.15390763859,2666.65821385103,2508.04412480261,1879.80976782747,2120.0133507675,2070.37473503681,1215.00226415202,928.678140428229,1550.1978244762,1425.80282477772,1380.478526946,1172.23798486868,2239.33000773642,2459.76316246339,2417.01509265193,17.9652597380862,1890.28242335754,1778.12565480712,1070.00985001113,1342.06400607353,1406.9644090804,1850.40081967145,1738.87530541988,1561.80777078526,1103.96281297621,1441.2593960986,1419.26192360074,20.9955088240544,1322.79376800316,1381.92991871243,410.022819805389,1371.17971973719,1349.27156472924,1426.07418386295,1223.55298120857,1061.83243178551,614.338005955181,1181.00666307744,1181.43727466639,52.2074869959971,929.785166112425,547.461762123867,257.023587994022,1127.4265694546,1253.76967955876,1232.65640315185,889.998415610476,659.885165363794,835.562470890725,1296.18593544959,1331.41485152752,20.3117614038315,17.21055801534,165.752667911109,1009.66501248918,1267.69796336763,1266.41863827523,1250.33891264975,882.099339728787,908.757558790222,239.076767618051,370.142211728225,1327.30807321963
,92,1395.79049601652,1697.24602398935,1706.00471571593,682.699732009608,1169.32832673925,1170.90394293948,1012.71474006154,1160.21819208854,870.722667461078,1821.65189165536,1670.53474883751,1854.874340295,1546.49628382993,1641.93627272708,1699.27075192064,694.17056379815,744.984210816013,712.243965724813,864.645946106349,920.695687641208,795.528657169591,1431.80076068291,1656.77531821791,1606.2458074593,1426.1576313832,1742.99460417202,1577.97060486691,641.962946331316,907.980209066528,865.304637211588,734.467491431007,736.751661360659,638.682849791068,2067.12651604679,2175.2244411709,2094.58553444625,1366.53678724533,1525.40144478213,1478.95381602323,893.992901979811,644.497327294499,1264.98402813715,983.792252501088,942.258387880235,783.127978578213,1818.77027913251,2042.05525592368,2053.44894386952,16.1992041903177,1344.75616538077,1259.76450984299,934.014195795005,1203.26340489845,1268.33128813348,1621.68608184211,1524.79160712757,1366.71624005509,679.901887146148,975.004204527539,953.757739165379,18.7434426915628,909.57114844676,949.368482500691,255.249692179095,944.888430877356,943.363184746857,1007.63548400685,805.536284694113,666.344017198703,343.408161762797,796.203631209401,798.879959199283,42.2400462229351,640.336909243001,375.332180269359,160.017842948146,782.418462708081,891.634766729897,806.114653064811,548.031961901397,405.241081217442,507.817316571161,862.546280506369,897.216315732598,19.5753901513523,15.4351833589866,120.592730389586,618.525269641931,828.32700315341,812.767690766724,854.244598120683,565.477750830759,588.554124305168,149.374041639023,239.777340817665,1140.0945443807
,92.5,933.086872764975,1133.16258725843,1140.73509529502,410.59975417007,786.955333106496,787.664237138422,746.229114982179,857.646180073079,637.253418135086,1470.05518280082,1342.09730527508,1535.00851679748,1017.70709050623,1074.1804030276,1115.15622875073,413.68260420592,445.843828660115,428.435251391772,541.290070389865,593.5038147043,508.743246833935,1052.99081483675,1222.90869156889,1200.98859795623,931.447627078883,1134.20937855514,1018.78486538766,401.537573527375,609.264714802695,590.057055367508,462.079513165646,449.332345750214,369.138757864349,1491.10381132876,1577.73370258669,1542.95645751158,892.932824689586,981.826516823049,944.416689582584,595.564622733398,404.08517376858,910.085666252518,599.07199649644,560.813582266594,455.479519611618,1320.35616638829,1502.63906834285,1528.58043454528,14.5750065139243,857.533162974357,803.435029670601,758.505741315252,988.10278566426,1036.02845276961,1254.78720137685,1179.10895037097,1070.87648249817,336.082317797595,561.963986089982,537.891836441205,17.2168673633355,560.763285114614,577.661768668688,138.784377081518,566.254673973115,592.288953214724,623.614758317992,445.108287555578,340.072399890979,186.68481308612,490.152795877302,493.951937382804,34.8191600844136,401.111950460126,238.25301170895,101.985459315721,494.416117868427,580.387169217003,466.138843745171,293.614935703658,224.677826504691,242.935052403117,490.30166302111,517.110110259,19.0118378602282,14.4304784330019,85.3676434618402,296.946877355727,452.328303655548,428.138445041481,505.802857855225,306.35343820481,324.511344948229,99.3112617399515,156.992436011339,858.523114469248
,93,519.407927029159,621.441513304045,627.928309359795,223.217646770949,456.04791577473,457.107978378321,486.796820061344,560.41664119748,414.905951896724,1107.62050085954,1009.5334811903,1194.60332592611,540.211138938306,562.441230100411,589.114922398975,245.832533677175,263.297047728115,255.405855663562,342.70863618466,381.985067331561,327.645603938252,713.994301520294,824.949140491606,824.820719969932,488.589888864183,590.023647900248,519.695765567602,253.489086378048,403.200630991654,394.769491374401,297.09182048417,282.180255949804,221.64755028581,948.873752806874,1009.15451436974,1011.05795414752,471.885629248175,501.861850908511,473.921501497637,371.076951171496,239.970651731131,588.868786256068,347.802959299875,315.292771060478,255.544871566824,847.569805180241,977.621421056972,1016.23407117403,13.6792049432162,430.855172079271,404.856009790515,550.87823127805,722.846335333466,751.07100959415,885.162994157055,827.243951931847,767.182107506213,147.275687385366,296.487096335168,262.679573603728,16.5440142697505,265.479112463542,264.804287946792,73.7550752079993,322.161215512184,348.705835404948,370.936969336163,238.464497177895,164.308837055086,101.555877868841,282.034659117769,282.556512358644,29.1889595830411,195.507669850344,120.929299729516,69.3835326146353,301.441586446572,362.062564335929,275.512647744881,172.921478005387,135.588348446331,103.981872420405,256.950725542659,267.731450310893,18.4075867629965,13.6699589113838,52.1258342649056,117.966157887984,223.578528444115,200.838665216432,275.788118634916,157.47953638575,168.321450546991,86.6309929878595,116.7974533839,607.574096918072
,93.5,183.782106484019,207.538987354743,211.798140410169,111.8582908425,224.198696212809,224.7013930913,285.735418555032,326.556073905433,242.851754047193,766.433761362511,697.666033721039,881.548062937478,171.134243126318,170.011805954138,180.404843573927,168.549877678246,173.244822764287,167.250822420491,233.26888918358,248.756590661681,219.851798449305,422.771238999012,480.06852562495,496.08611558281,150.335478947971,177.894131056693,150.076353317239,178.428464942064,272.087175108999,263.009220388604,209.544825505383,204.479820167067,165.989748490231,476.576472485411,509.523910014378,532.83318952548,150.453103062141,146.341584850287,132.382634215508,234.021274854488,154.241802255997,354.954658589843,224.744145404017,198.490187459158,166.070715740563,438.641376535415,512.601027444954,553.792138037993,13.4828580340014,118.972395999906,117.225441341843,353.178453844705,462.665559344512,477.489393473019,555.260897612708,510.316321700454,485.77018867101,89.9263682667864,169.089445812707,145.178918223142,15.8456457530935,66.152127795023,64.2593149768395,51.6236114061118,184.271850235426,190.091052002384,225.123863510576,150.986124673321,109.64744830306,78.5028639761074,166.606710902683,167.110841618565,25.056010799084,52.994592722608,40.2460284419909,55.6302516519835,194.039617920318,227.916999923347,198.228817703971,136.426052866903,113.824962819934,73.2800962267237,153.810130820283,154.087251225009,18.6245485245329,13.6399841684622,25.829918806308,72.7565689129768,131.625753917238,118.009017168965,158.939665558353,103.567231856677,108.912503690583,87.7848858145915,96.8525339982498,381.23540021497
,94,27.5039317189417,26.0766234298355,25.8434376131174,66.2376213250758,105.458298836425,106.59809281592,152.780291420162,167.387062106236,136.823735578467,509.702748976984,453.564367618833,626.984588210632,23.8071674748255,17.1345785865639,16.0777811071869,119.032995968253,115.889824393316,111.118402581587,154.74955734379,155.272746239653,143.896215221121,227.303576615166,243.764544441809,262.645262347983,18.2761282839006,17.4437225948867,13.8582769323309,142.483215545922,205.820587456224,194.921952800287,153.037651124361,156.298770754428,132.998249857621,214.052185337704,223.026465147917,237.958708561481,21.6614434188625,12.8469712146641,10.5892956211704,150.662404066099,110.581325347747,192.606627744207,163.593314670452,139.452967691693,119.377920037356,208.191066474745,232.843644851588,253.160911629853,13.4798560989394,6.01398817664449,17.406315070044,233.036799435888,297.42861710023,298.959159419397,323.775416082015,288.338981298441,293.541805334448,64.2533529909239,97.4841485455055,92.7884322393693,15.2875583940296,4.83903964174931,8.1821893745398,42.2801361934531,95.6784568103469,97.4311671108874,128.77592131778,94.6311929313359,78.3832727526682,70.2093835246092,107.906930791251,110.881595783134,23.5169483508074,8.5715416562889,15.3553190822848,50.4210540018481,130.900597171854,147.849399473868,155.57822609697,111.757397787007,101.629570962282,62.7392007313006,103.617086222738,104.644763328891,18.8060835095495,13.5728414133196,15.7841916334554,61.7338440130301,91.2187966583595,83.0027648116867,98.5835350746469,77.2948393707965,80.6705348455514,87.9589708385042,82.238544983002,202.963792328516
,94.5,16.1714860146335,16.1705588579518,13.7259516309316,46.0178099540975,52.0519013357795,52.034524512146,76.2789381625446,74.4589278298846,74.1795751010399,425.541551666126,360.264471393043,551.439707905665,28.358690583613,19.1192707149427,14.5759811843438,85.1862668727867,75.8987102893748,72.6260673906402,98.0169018167004,92.9261595852596,92.1552784133854,158.400149433203,147.014483303625,161.583731718584,16.6655784745922,18.1850848082521,17.971743229609,101.187355332724,128.033712945368,115.651956065646,119.099403609895,125.522415566674,111.494674779163,152.398449979182,148.923663427642,149.327066649457,22.2840974071862,14.1601984751776,18.0615199542211,94.4924326803496,79.5146795252379,95.9426621473558,128.714401922543,102.291059099834,92.6311945980749,133.872539488855,124.676699341166,132.319212443231,14.2390753921355,9.55746689231819,21.913306229073,119.711369692359,144.353615836521,143.137035765617,210.653121088303,176.300107473042,187.117757683584,45.1922333697927,57.0522870331816,61.1845482010631,16.1135142203549,10.7679761242301,14.5565826802519,35.5720185567858,47.2156520069395,52.7724957159819,77.2950017867508,57.7824117304116,59.7506837024351,65.1915550741346,70.2287490977291,74.3266954699862,25.6468704866751,13.3575963438898,19.8348588109656,47.6015352594837,80.2144383357701,83.9229178390899,130.512943910969,95.4255019282077,93.0831405101537,52.4053070072755,66.5259807754014,63.7809857611909,21.3933442557928,16.2280393384376,16.2062805086397,54.8151580317857,72.3564203656313,64.0072355652893,63.102646408582,59.7065193814605,60.6076855351228,97.4628383885679,85.1204175072238,131.950472017804
,95,8.37509358407488,5.96647799513289,5.46676562578273,12.436465045353,10.5235268815646,9.80146322189637,20.2024761107625,16.9243749893341,19.1239064536898,186.458006858697,154.26164005865,250.242261474796,14.42189109571,8.21239560936613,5.66709440579803,27.9837001129158,22.123282989884,21.3140362219722,28.4582668375202,26.8105743860698,28.1316248606107,65.0680724077994,54.7552879693619,60.9373487212187,5.70626440272872,8.02911792524981,7.9007963430729,27.0180902283277,24.2869805199989,19.2480966143943,44.2803059584187,46.0614824089267,41.7735641959461,60.1262299176435,57.5419184898932,57.2664554650703,10.6382120160526,5.5342732440447,9.0057975018857,27.0951985073737,25.1129717976266,26.6213313673516,46.1315506187432,33.4959785004161,33.2275175855091,45.7353219227199,35.7106843338159,41.398619502187,6.47820034627978,3.65015656087871,8.47035434616646,15.111477525572,14.0033353788886,15.2215276345391,75.0546493590017,59.5326005412797,60.3253134634783,13.6944084996718,16.3924514714855,18.9319980275732,7.21673938670131,4.39630211322799,5.99234841804059,13.2452422718449,11.3524485753589,15.6864820590838,25.7715324110488,16.3348999558947,21.828499206012,26.4884019682581,19.2753602156357,21.0428719441639,11.6633449932382,5.58734948735309,9.17598558723228,19.2434470924487,19.8250530868401,18.0909480911544,49.2826539317043,35.9554630634425,36.8388066179461,19.2323499664794,17.5679695109188,14.1162124347583,10.512106614212,8.29215376155435,7.15609357417532,21.7233408707419,26.5761362562041,22.4844665332304,18.6862009968021,21.1287245096436,20.8069958459153,45.9314902779602,40.0840937557717,56.0419225468223
