,Cycle,A1,A2,A3,A4,A5,A6,A7,A8,A9,A10,A11,A12,B1,B2,B3,B4,B5,B6,B7,B8,B9,B10,B11,B12,C1,C2,C3,C4,C5,C6,C7,C8,C9,C10,C11,C12,D1,D2,D3,D4,D5,D6,D7,D8,D9,D10,D11,D12,E1,E2,E3,E4,E5,E6,E7,E8,E9,E10,E11,E12,F1,F2,F3,F4,F5,F6,F7,F8,F9,F10,F11,F12,G1,G2,G3,G4,G5,G6,G7,G8,G9,G10,G11,G12,H1,H2,H3,H4,H5,H6,H7,H8,H9,H10,H11,H12
,1,-32.0616551957446,31.9400595991774,40.1964957760583,-48.7771091658897,-50.3307621744561,-47.8718480187208,-25.861859108094,-36.206411566618,-13.6379557581913,-75.9079560188438,-125.472413971975,-784.935510936284,28.4684819236709,91.8286209806083,66.4871824854044,-8.87389447094574,-24.9862648493609,12.5309759454749,-71.8509355567076,-17.0288638380625,-65.6678979729895,129.787509407239,113.776881152111,-117.91563655587,-1.57653306398242,83.0061399011338,49.257654521065,38.7500843544058,4.56317159024456,12.8980932482546,-101.667706952998,-111.112747236257,-72.3137244257014,164.566669762424,115.018292030227,-58.51749621612,-14.9001539191786,44.0959165024879,54.7735122036429,-48.6993239321819,1.07047607501954,-77.3650340696931,-37.8032346204927,-48.3807092928364,-61.5357194828903,141.594253392663,105.835618278434,-17.7542044156544,-30.714511579482,51.4849329050758,43.6930283993506,64.8164562403199,57.4366117958634,27.9071319239019,206.446390195233,168.013516440522,123.057965763166,60.2690581484212,26.2441800021315,1.22758879812227,-22.9582040187597,53.3790147840828,35.6304742017728,13.2640789121024,9.57467154173082,6.79519109748071,-21.150770028964,-66.7622981631303,-30.9127217449886,103.95856985194,42.2524415633598,-21.2108700747012,-32.5875036085808,32.9906218564365,25.3762286981437,22.8690114879983,34.4239398017617,21.1726805506323,-87.5295564496228,-93.1551528640885,-45.0288517357767,22.9818478574662,53.2493084117077,-31.7431184664383,-63.0749383287957,-19.469951869467,1.11748684400027,7.49301001870845,-26.0191295846598,-12.9273095806111,-112.878619875197,-131.129061614449,-116.995400392711,155.578648540275,66.9711963300961,-31.8293907030129
,2,11.7008715570319,45.8920919875491,45.8971563898904,2.77005605484464,13.4462920209689,5.46933997859105,29.8854677238478,30.4438408345568,37.3503718540323,-9.99138277678867,60.4400422303734,-131.924954691247,46.0362663674132,63.1226201535355,57.7036008278092,-12.5312765633053,-26.6284848880905,-1.96675372534264,-30.3021600944085,6.20256147282453,-32.4694865813126,53.631225160565,62.6705497306884,11.9677214330131,44.5414243918794,60.3738186397659,32.4120578477632,16.3816288290836,10.1427065091475,34.5744968709378,-38.5560301273672,-47.3189019380497,-46.7770438332263,73.184255328546,69.4798805044338,27.4160226225958,37.623749382532,40.6497645191212,42.4739866673017,-29.7715312200253,-22.2449067063135,-28.5754730639292,0.0385584603645839,-10.5873514358027,-8.44964320705003,93.5687362248609,68.2379400228529,60.2658015676789,0.7924100451919,42.7064913427212,32.5305079236223,56.5523784552197,32.4106718585608,34.6863300563646,152.787226522838,116.593495291898,55.4825884464608,39.9719346986058,18.1645175142476,36.2532140256308,13.6952309779954,48.8340949757894,36.3179484807752,5.36818842687717,4.63270798712983,9.45576080537103,9.18225857471862,-22.8923167378016,-18.8800953235877,65.074644922217,39.3959250259868,49.5719374489672,13.2976676618582,26.2828056922799,24.8190323320096,9.97078636360129,18.8133006886264,27.3322343601121,-42.64825300136,-37.2178663670384,-31.3837387276963,29.2831038399572,39.355581390485,14.7187247440634,-18.8422357291047,7.14239036398794,26.770491530754,29.1930125960707,17.9087699668598,15.7602135625766,-34.9447176392405,-49.8083021771918,-51.6642014965801,152.657718206829,103.498193679998,49.1424311195915
,3,14.0555024456553,28.1815420736266,33.0376526131167,1.90144976845932,12.3773782922954,18.0522190289885,16.119684140016,32.1418388552393,33.7967997702272,18.7536595472193,36.4416746319548,-73.8742775619939,34.4430928050606,43.4411837801927,29.7509378477362,-8.31657881431056,-3.755360245661,2.7966618230912,-27.2803762521962,-3.77897883975675,-5.31736182599434,53.5846497007551,30.5876321496307,51.4500528009485,40.2491976834626,41.7411294470876,31.182992236777,6.30106703045112,1.24033550668901,14.5937256159395,-19.814406474894,-24.7657426124606,-38.5750596612161,52.1419326713749,34.8906498341021,17.078514119301,35.0477472480325,30.0587040075743,34.8557430183027,-2.36306633640197,-26.2781510039749,-11.8934078443008,-11.9752127188367,-14.6691128629845,9.16460406319311,5.39702427494376,25.1944489420639,53.0767205807097,-2.29243025082724,32.7235183076436,31.297510997164,51.5657288043039,11.3025365181675,35.4742840705003,88.5409594366483,69.0262310750131,30.5067205392697,19.1684749602819,13.4090756259884,27.6411583658928,13.0572364090258,29.4691147134763,31.7607883325081,8.16096418581765,8.01535974430226,11.8400686265413,-7.11705427601373,-19.06847659911,-9.26560899114247,34.073157979632,24.0507203020234,27.7599485134824,6.54761433744534,19.3262930381761,17.8900736877049,2.65431400650323,10.3365455677349,9.70184137537399,-19.2505534240263,-20.7207310531667,-13.9184936739421,16.36066749375,34.5290146348234,21.1371723767134,-5.02758788048232,8.36797452378141,18.7345837086841,16.7069024999209,36.0489320100078,9.42776797399711,-21.7333170906222,-34.9800664702016,-29.5831200965758,109.76153394104,96.3222399615534,60.1714117687316
,4,16.6796534339082,14.3688708833852,18.103867416411,17.7955292289826,26.4019101612867,15.8978747133579,19.3568250208627,26.518322145017,30.6165813614571,-11.7616317964457,45.7182253623268,-12.8831386776328,29.9054422401796,23.6223095040168,22.3618451320917,-3.50366356080849,1.81005167123658,3.05184388808084,4.48544766652776,27.7869371433153,-12.3822539591147,42.8674221126912,34.7637676041159,32.5656974151534,32.1212416185481,29.5148993694938,19.5287288596128,12.4072919377868,11.6108752444352,13.8274073740367,0.00200179575949733,-6.1015440017145,-14.1840176204951,47.5380630087529,33.3243076706112,31.1745614334704,28.1550706421076,18.826207232928,31.6470839710591,0.871737322320769,-0.960371564133311,6.26815602338502,13.6142096222902,8.01172579554986,8.23887427873342,-2.13516327650723,26.0823036259171,27.6949689351859,7.3800446575915,22.301876490068,23.3694060530197,41.258341373984,12.9067171698971,24.4143340595274,53.885402702128,60.339744292236,28.7126580799559,15.4342858101145,20.9823847060206,26.6924421122358,4.39164228324626,30.9215353036643,15.377537336055,6.95175455514072,14.1488666511887,13.0817060444097,8.62085766676864,-3.2699533848936,5.1326787869184,33.0867577995232,8.51611499643059,21.0479083808841,8.63482544523686,13.5634253038215,15.2035025166742,14.5287728986787,15.6069165312811,14.7139035664632,-0.50975017735982,13.3117442779276,-4.77693180677488,13.4005448890675,24.7152818636778,21.9772636805856,6.10348640655047,7.84516402746976,12.9913997032463,10.4976765998126,28.0128130572357,6.03673397586044,3.94065987046179,-13.3500390442905,-8.36738654520741,85.2664515160486,67.6646627359496,63.3532353400751
,5,9.56224099672181,2.44534664589719,0.396816300883984,13.0669473948337,18.2428811626278,19.4793004077201,18.7900023421571,18.130517628133,21.3828652298334,-9.92427069526457,64.4723733764476,27.2241537749032,17.7669426879274,11.1577249316297,10.2294938608748,-0.087804336651061,12.2669158830231,3.14109696033029,4.0634512235556,29.4456574667493,19.1782286885273,14.3012157843987,5.41028181015463,31.1768662397553,13.2012724304732,13.424320443346,10.8453908283836,21.199536125182,9.35736390462898,9.64629252063969,21.4643493442745,7.9143390041063,8.15059782036042,30.2907693546131,25.438969395138,33.5389292021355,19.8395718127458,13.8120523866419,18.6997326049823,13.7475273430446,8.12690070714416,14.0412446001528,8.80421799609212,16.6429010735646,5.32038329922398,-34.4589816588959,20.0235580151111,10.9764802254685,7.92064664971258,16.4251337903543,17.8728742756139,31.9600712647743,12.0277464449127,15.5430714892145,24.8318264166501,28.7890419698942,17.8776338739717,13.7088071478875,17.8232331464051,32.6608483703048,8.24995494444374,22.1358213154881,17.8324792613666,13.0578848405121,17.9264983482381,10.0903739948799,8.37260087771756,13.5042779229107,7.91076796364268,27.4689708825754,15.5056383373585,12.5949068907803,4.3135842829297,13.3431914716684,8.42866056329058,11.1781132407459,5.20776787290015,10.2607992008807,2.68896426576248,8.19483172555192,7.61249865507853,10.3239657707227,17.9536892363203,14.2699308270567,3.65412938845566,5.47379427149735,9.30292269284109,15.6997054522562,20.8619695995731,13.2795074564292,14.3695724101099,1.37185027939086,4.05886325772917,45.1680669572252,49.7104286928698,40.9489082891578
,6,2.41900731329406,4.28416980629481,-2.37104585103407,11.0881791152424,14.9995757330817,14.812530515389,17.3383265544544,20.4037570437695,2.83720768898002,-1.64068883977961,12.1782855203292,25.5233384238127,-2.48190653850997,-10.8562502607774,-4.87274929517207,10.709084087337,2.33390711657921,13.553201737277,6.26348794443584,28.2191101768603,3.83637585070665,34.6374783895571,16.389251307015,13.8428714685251,5.13932585857856,-0.156639918032852,-0.757971466765412,12.5755324621241,5.96191431089756,5.27325517435929,21.4102111322863,21.3213893604716,19.9369789004377,19.6069233478702,17.5024409951966,16.464538854616,3.76461441543961,6.73530474751806,12.7446985940296,4.89620053355429,14.5044972814667,15.2688093150882,-1.08440733654606,3.63899639439296,15.9970945382174,40.4297631150203,-5.64347490716318,7.78065828980652,7.24135955875227,15.1893783035212,11.4200699431703,20.6757646445631,7.80483610947704,9.60060356928443,3.37403891766371,17.9153891208716,12.9024650901647,13.4801333490395,6.69562275229055,10.0752268253536,1.02990031229638,17.7507394572267,7.73008556808418,3.72864697042678,10.9369567775848,9.80788941192077,13.7695218343169,19.8865640298936,6.62367358897609,13.4646352921955,2.26041754746257,14.46385558561,5.23140447978221,10.5541776500422,7.33604114397349,5.36434093041771,3.11736227700931,6.52461516621679,14.3792055650047,12.6480598093549,25.0284508316945,9.72613579289919,14.6788466566977,6.21159649835772,4.60246830288725,1.97227448221292,0.396084335750857,8.88385367678984,-1.36658796165284,9.54208180442311,12.6034682159261,25.8347132046856,5.25015631880888,35.680638725089,34.9073888867188,26.1992039082561
,7,3.83123081308349,8.12377545533491,4.1639220294328,9.526640345538,4.17262808289252,6.44870662164158,6.58127772192074,10.9805487229123,3.0717881960054,-21.3303565814931,25.9400957761409,8.94639012553671,-18.3949394345691,-16.2990584775962,-12.1302789534857,24.7144950344309,17.7773791844465,7.52573360747647,26.0915603176309,19.5853732882297,9.72899634498117,22.9222309610795,14.4539260482197,33.8701695815835,-8.37757947484806,-7.03236357677724,-1.77466051828287,8.32200030053082,8.81565265446898,7.7317754735468,25.5817324732107,28.71057986712,26.4479844535181,0.0857243235295755,13.5106222134127,-5.96217145113224,-3.91274063914534,3.12859568436488,5.66426179541577,8.275755332259,17.5195492101884,14.8524652519782,15.8259285821805,7.80898124036685,5.36192236933312,43.7124511240145,1.44216433818838,-2.3747675860559,4.91565332077516,9.49015806732223,6.20514819668097,13.2438659280851,7.10204170139059,13.7494065149231,-4.69153449629812,7.59060987425073,11.9811058066753,1.64778014776766,10.3238852856448,-1.20558190146949,-1.60376525801439,13.2383964390383,9.95637861030264,13.4133049302645,13.4534185617422,-0.440786702704827,15.0734354517772,6.87673911986167,20.6125440200476,2.43600758817229,-1.17064833253971,8.23655855056495,5.56747608979458,4.8674820582537,8.85215996606166,3.56219319017782,11.0657471717977,9.42097676559115,23.1217746459497,11.9497746418128,22.8371057485547,11.8543706138444,16.6301868635928,12.0933704786294,3.18687766012135,9.2674886154673,3.38272082488675,4.9773494832607,-10.246633179815,4.3199078586922,21.3389534913749,26.4472216833119,20.9907507568978,15.2595044679674,1.94025808157312,11.1394668512476
,8,3.28224562387095,31.560834698369,7.76605565225054,11.4367126863817,1.64574702499522,5.95238095650075,11.7656486142096,14.4381366089829,0.515129390410038,-2.79867477682637,-8.94788267629156,9.17616926872142,-21.4333634821924,-17.890549149467,-16.4571602486603,17.0350850799732,14.9114408889145,4.74090330684794,18.6985693520637,6.1130534221702,17.3694422541739,12.9136035600295,-9.70825907473409,10.8741441314905,-13.0470135799314,-13.7761466944839,-13.3764269386738,4.77165661757499,4.721900691472,-0.545034777475848,21.3587425309997,30.9053374917803,33.7480250308872,-12.9245245600523,-7.55915097227262,-10.3383394277225,-12.4848590274223,-4.14243886386976,-4.98300430170548,17.5013216617372,3.16756232025364,11.6901401442065,13.6550631525333,14.6440072716632,4.52535408261429,10.6728332918537,-18.7519171730073,-10.927159774652,2.39071766347115,1.71817376467607,8.21766672599188,-0.0759132704097283,4.70762214806837,-0.281165347793831,-6.61794480793651,-1.05707098674793,-2.92635150457863,4.03275596906406,-8.14129721594145,-3.34974835369303,2.27973278055015,8.31778158232828,7.00373492113704,2.20258756919156,10.6651544339829,4.11847145196498,10.7427726514115,22.7674371349522,1.58920114192642,4.46871029083286,0.50827356692389,0.333245339911628,-1.06656367963569,1.2570012700744,4.53702004544448,10.9259262755968,-0.582432571382924,1.81803093597864,19.6756283844625,14.4696519810968,20.0494386284663,8.31244031571623,0.0681770074434098,-1.32707568482056,4.32189489383109,9.37551982946115,-1.86660834804297,20.9434382880045,-2.03648827401958,5.68374705660972,13.5126826865198,27.9176545935934,20.3086510321345,-4.57202585712548,-1.76502158853509,-9.66575359550188
,9,11.018966686408,73.5754193945695,38.6738252130544,6.43897044423284,-5.90122913630603,-2.02323920176605,-7.71399587596625,-15.1950877717836,-12.2678092051119,-2.81383666557667,-24.755477566121,65.3362247607911,-21.6488506699307,-8.72533044509782,-6.19245239342126,8.2479829877484,17.3704417609788,12.431794921682,14.3692628399422,-5.42078301160291,22.8777233243345,-14.903961196098,-17.6737301735484,15.8394203079461,-23.68202548713,-26.0974983160586,-19.664467808454,0.0685538542302311,6.70111277584601,-11.0793890513405,17.5342455581776,25.7512790659839,25.3659012461085,-16.7652059629545,-16.8804222722574,-24.8499153566991,-13.1550055574953,-9.52661810690097,-8.44799637606411,9.5873044032196,17.2106520025955,12.8381476818913,10.4198437070099,15.6490148114572,6.68421090772063,14.0413756945472,-7.30400289854515,-25.9322312912209,-1.85828249651695,1.09502014597638,0.52202638370909,-1.93196456902388,-0.223171832505614,-1.84139764221436,-24.8719760923686,-9.51998516315689,-5.34154562170443,-8.46195292474022,-10.1696264429338,1.7346434570245,-3.28808816355468,3.73495529703087,-0.666874042071868,5.27481279712629,4.21132297782151,-1.83035509907131,12.4965990812725,7.65437613849554,18.3126510622988,-12.5525887125623,-6.08375784016971,-10.5891367720633,-1.27850544298781,6.07788164218437,2.0208237782108,1.6637953551417,2.05395928069447,-8.03670521500135,20.3876414266761,7.6698067208963,10.8366381810283,0.3464982942387,-12.5539828652963,2.30021904073783,-5.4630757950099,-0.0164742240112901,2.47291940510877,-5.91675775345811,-18.2324870160292,5.47738509884039,18.46864179357,19.5643751713305,25.5384787359453,-11.9639487791319,-24.4663235186799,-9.89715870743203
,10,20.5885304965577,137.24067314978,95.3350002650832,0.029899814617238,-14.311147227224,-13.1269551564783,3.13710279782572,-16.0527689634919,-13.467909548529,-35.8929864551264,-7.86741615901337,2.70625731138716,-11.9152918689533,16.1022588658743,9.99075853210888,8.07503805792476,0.536471277457167,7.34293282178078,18.9709231799279,-16.7916443957747,8.86771596280778,-31.4506485357833,5.75149466385665,-19.5404333658462,-26.7120658180138,-29.4975524043639,-25.0067120656331,-0.561625476581867,-0.566625373620809,-6.89839510951424,10.7202881558824,24.8603861106549,23.9952848278481,-27.2896296438666,-29.8815937280233,-9.20768513300391,-12.7790610245711,-17.4134457367581,-19.3825037107517,6.01799955475144,20.4630533892196,11.2446294614319,9.27271415136056,0.731713618610229,2.47861890382228,-10.5213249725166,-19.815174098896,-22.3146973084367,2.8792443233724,-5.60159567017672,-3.14103237091786,-1.3717292852325,-6.84818455097775,-7.7534116801944,-41.9764889747676,-37.0728745380584,-5.58532556826867,-0.317300113068086,-18.3156994734072,-10.6422713453367,5.57863302986152,-3.31925133211189,-6.20009316268624,2.40141995666181,-5.17643689341276,-2.77004667661186,7.05850744933923,15.5012540936241,18.1270972421171,-17.2243862325804,-8.22352724754455,-21.1661535485146,4.33415105237418,2.17331164311418,3.91982595884747,5.44431465171601,-2.25980376170446,-8.845929844907,26.6197282306639,8.57513628187735,3.37893195951619,3.07804908791513,-7.37416800174105,-5.9943401602859,0.0536562677152688,1.54402527081311,0.911179564655868,-5.61950021167922,-13.5832149690377,-5.60409448295286,4.01833804402486,23.3169098835651,13.3529028793246,-17.4971082354768,-29.6491330059634,-18.5349429971757
,11,33.235728408572,245.059682481367,163.412472089068,-4.97025982067134,-6.75373813282022,-9.71718096097447,-11.3999933115747,-18.4347631271285,-25.1733148828716,10.2563284883108,-13.1706575826101,52.8313061007539,15.9538418772199,60.7813241693239,50.1363286632459,17.977638802322,-0.338624985442948,-2.69160918700345,18.2301327072473,-16.6012546104921,10.7582251829699,-6.01515551645025,-24.3781076457417,-25.147332768378,-35.86356993354,-24.3910796823711,-15.7509345878152,-6.20517990277585,0.724337461275354,-12.6617877812987,13.2099357358875,22.3541716478994,14.2244765500454,-51.8835057859742,-44.3678396986288,-31.0522173551872,-20.7935863904704,-18.198750015802,-20.7926790678093,-1.97998897585603,22.0099204043872,8.74251055267996,1.236094247457,0.872027231198445,-17.5342781791787,-19.4787859607331,-23.3137408231887,-40.4359132169393,-4.07360634088127,-12.096272623623,-12.3174455633207,-18.1486029826146,-3.35938783999154,-15.2117063308615,-49.653563191916,-30.832339696397,-24.6920522755427,-19.0156294327599,-12.1123600193851,-25.3726477779946,-3.57148079717899,-7.43166982475213,-11.2917363240113,-2.79452919836422,-4.42527342133417,-13.9007693472313,-3.96366783780195,0.182911914153919,1.09943798456698,-19.1624377337839,-22.7153385306556,-16.5877268636777,-0.18916421222184,-6.03177687390598,-5.48412350913441,-3.87110206461603,-16.382760444425,-7.08029032581089,5.94444729594761,8.82531160001417,17.3189905734962,-1.58392198700767,-22.3005142963957,-6.60278451066279,3.67983044792254,-7.50752514838223,-3.05221856542175,-13.7341258788147,-17.9234963662711,-4.37964466033736,12.9066244806218,12.9224702779702,17.9668504878609,-33.870741822433,-37.7604309564013,-27.7921853715216
,12,56.8950030373735,416.053348389916,275.947325857393,-2.57977613355797,-9.80810514681161,-25.6954280767186,-23.8862598124042,-22.1759356096773,-25.2289892873196,-48.3875506789536,-55.0979712526259,-8.98130766395843,68.5110518902729,149.00124624184,110.556601477686,7.94648206038255,-1.923112167824,0.700007407393969,0.292901819722829,-44.9091984719271,-9.58526247714508,-30.1303182451975,-38.7385221468667,-8.98557361087296,-29.5700475569774,-10.3041816461609,-10.4178940520087,-16.4021259221045,-10.5211988646734,-15.0840162139575,-2.2343459445965,4.35391618223366,14.8617080034037,-54.7196990107313,-28.8648257015157,-45.6982861003071,-28.8956456024125,-25.9734784904149,-28.1500396432302,9.42487157023788,10.4601010500573,3.37760477664597,-12.820102097523,9.8695325163244,-4.85901955630652,-24.4147934238899,-24.3478961996116,-44.11308554264,2.49405998889051,-22.0799881890471,-18.3053203568816,-22.2394574261789,-9.35713284878148,-20.2219409818481,-50.0874472092528,-35.0776824933364,-33.2257351028402,-9.95089542014284,-18.2660600231793,-9.26511310539263,-1.59730952788505,-6.29783131530894,-11.7776742125843,5.48374660166519,-13.3934803375569,-16.7544426352988,-2.35954059226606,4.69502624409779,-4.14720878045955,-20.3911585357719,-26.3551232684795,-20.3246275127703,-1.70020216939611,-7.37030245189453,-7.1031543790732,-4.70960595066663,-12.6037439990232,-9.81469338830357,-4.09942582686199,1.59015933430237,0.399591040526502,-12.3714686084013,-24.054836068115,-21.966136889444,-2.49267628525467,-2.53674391505137,-5.92498292510481,-12.4351693902645,-36.817727982615,-3.77716963456896,-0.298385321280875,18.2671759402429,17.2623973514674,-50.344624205376,-49.5293944774312,-40.6981366047858
,13,88.3022373360436,633.606705937275,418.604194512895,-20.7573390539565,-30.3518444105403,-25.7250608352024,-20.3912927175015,-26.7580014309087,-27.7488952102731,-30.0234291795241,-45.6004792499934,6.66158061813985,132.585095981706,260.195742232751,210.599890711386,-7.14601888230754,-3.02292920716536,-13.8914618124472,4.00562113579872,56.4484368345002,-5.0223057642288,-33.667320331193,-17.5014947560412,-44.1746061997565,-7.60732964800809,24.9970121068054,15.2061031914172,-18.1647920662872,-14.3597677342623,-20.4454353078427,-7.18721354401168,5.75192943592629,1.34642108663502,-73.5127301449338,-63.2048748642301,-55.2018587700313,-29.2487731064184,-21.7404758045932,-34.5692790695366,3.2121457962985,-5.9942901786053,-4.38919096296922,-2.21048025941309,1.63261297699864,-21.5727180788545,-40.5213127549287,-30.2782688200041,-26.7369123848875,-0.481574184183046,-25.851208252886,-23.8238288217726,-30.5700887144576,-17.7468987705215,-19.0198354147369,-61.170694439099,-61.0139549631713,-30.4551548576164,-20.2548519035572,-17.9714029582792,-32.4483221608652,-2.78519855637023,-13.9736510900993,-16.6310588842198,-2.76644139377368,-24.3945598449482,-19.066241404269,-6.95038397307053,-1.91342537376022,-5.44736616475075,-28.6258898628539,-24.1340306203983,-31.3156621280541,2.98855940132125,-4.91895033649325,-0.489947570596996,-4.06822249358538,-12.86121263716,-15.9278335939907,-9.12542040131302,-9.75759431618826,-8.28459697837206,-16.4293715155527,-33.9152604621559,-22.9505646020834,-1.15448809825921,-6.53524572811239,-9.04976703389184,-20.4746314220274,-31.9772727509389,-22.1046964923571,5.50618949112413,2.96296006398188,1.93871157649755,-59.5323954776359,-49.2836213312585,-41.3659387927073
,14,143.398884684726,960.710833804965,630.887147899149,-17.0834800345283,-25.545452704152,-26.2561722650325,-39.0878120752523,-36.6049854069761,-24.5836023361762,-61.2647156509101,-55.7595298664364,12.1046235282192,244.26743975009,432.489129845147,348.311853479112,-3.88991567649828,-21.5003779229155,-7.68253864415419,-3.55435545443288,33.833683614972,-23.1030300591965,-58.5845494094756,-30.5715762688105,-58.4120059836532,19.0764515645978,78.8001855304237,61.9735046271007,-23.6938974873283,-19.6347380333391,-23.6494035807473,-22.7422426460471,-7.60947072617819,-8.43036770016806,-61.4558807078683,-58.3272581919828,-55.2782456927489,-31.7153579995565,-26.3759725832242,-37.5510548643797,-2.29495764691274,-1.57690148475194,11.0818229066117,-16.2504039091127,-0.239590291339482,-8.59175762848827,-47.3380930687508,-34.2643933803083,-49.02226915344,-7.3630209437033,-31.3489349526681,-23.3433608956257,-39.2237810070565,-8.97212314369699,-30.022531141668,-60.7563205437509,-63.4429993369395,-39.6727427061323,-28.2045807886889,-18.5344639053383,-35.1988966030376,-7.04810464267393,-22.1715033898954,-21.4865646969529,-12.7274077826914,-21.1763028701635,-10.8664512161322,-18.2116117759697,-10.1988783855113,-8.33695035794972,-31.8197774240944,-21.3790378474068,-33.0236579725042,-7.95497944754425,-11.5018550769109,-7.15243781117169,-16.3932569459557,-15.5504832860788,-18.6889423671955,-21.8361266588763,-11.0687600654201,-19.0445551812682,-24.4386016131211,-36.1836036642253,-21.2439736796878,-1.75100958431267,-1.89761978613478,-5.41934798843158,-26.0766127954485,-43.4742764837274,-25.7189227093386,-12.4841689445975,-6.42895468485585,-5.79166906148112,-60.1212436998085,-65.2574815154603,-56.3704350723092
,15,239.714664442214,1533.07394282245,1012.68086298822,-23.0872811151066,-19.4825533340781,-18.359613428056,-33.7131723176335,-23.8321018648303,-37.2275253720727,-19.3337919660498,-48.4988528802005,-49.9477281917643,447.671975791332,769.10544451544,623.444659952378,3.67781874534921,-8.32114476513016,-10.052254591712,5.45877745171856,-45.8449093854997,-6.16142788324669,-31.8994872489857,-49.0427447698021,-49.8703663741071,93.7864496811007,201.775830629872,154.538251964647,-15.1068034669242,-0.751972410183043,-9.93429316843958,-11.8017969992052,11.5838828292399,-11.7860004349113,-45.4409626854194,-47.6045175382969,-39.325825159849,-18.8680115897569,-9.8280377512574,-21.1604802729898,3.26953764712744,-5.4811475589413,36.271326727885,13.0985557260046,-5.4405589303642,-0.637746056234391,-52.3131953189695,-14.643447060691,-38.7493641972069,-4.31857703764945,-29.1990782313478,-25.3185182524703,-37.314702553901,-16.9932039822443,-28.4099574670254,-69.0247839678268,-62.1012979464904,-35.9181697102631,-23.6836834989444,-18.9035062214889,-28.1057299490967,-5.25388924464278,-18.1860409969431,-13.4031071000754,-4.70308340574957,-21.2815822116972,-5.52000814827261,3.45320347030247,-5.0519696102001,-14.3506122516374,-40.5198383650941,-13.6209736331875,-28.9317528523652,-7.38676437028425,-5.85351255204296,-10.0089230521144,-13.2211951585659,-12.4830489816659,-4.06475349357788,-5.92970351380245,-0.654030772022452,-15.6396009132459,-28.8551002787053,-27.6010282504649,-30.0210072874133,-1.58973510071337,-4.79076453977905,-8.89889789329754,-21.1868091231563,-15.0608209995626,-18.7927873306689,-2.08164461225715,-0.477194795277683,7.23912904308054,-65.4358610878971,-52.2883491851717,-61.4004133986455
,16,340.100763751968,2237.06929456419,1453.85454798896,-16.2542865235973,-24.3422193557499,-19.7422903769138,-40.5229512792266,-45.3173363575761,-32.1335693160272,-47.8391541496167,-77.909719462501,-48.7470399568992,693.740522910755,1154.89190429348,942.827410528826,-8.86514302487922,11.523412004286,-1.19956117570109,-11.5846330821769,37.3474388802279,-6.79521187431146,-57.3432919794377,-49.8484417665604,-45.5215701672023,189.125095290829,370.356772584229,291.039356348078,-19.9384325536175,3.40315123134678,9.57697554604965,-6.94865061534074,-9.189702549711,-16.685122901381,-47.1793888841694,-28.2213345880737,-9.54687596182885,-8.49184805342884,20.1255347773385,-6.83303233788956,5.61428330357012,-15.9292457514639,91.0691110822972,20.3848249838702,13.0149427621127,9.60735818995454,-33.2468627348808,-20.5686861022768,-27.0569247857802,0.626936412619216,-33.0467394169391,-30.5097046156334,-46.0192951046602,-10.4511851801881,-24.9966950563639,-55.9607705466187,-64.5837481947765,-43.9048390109128,-22.0018833126805,-3.90498819116237,-38.1904726472612,-7.67324027156519,-24.1426176135119,-18.8030358967644,-14.3867889463745,-16.7992001061648,14.5389064379087,6.52496489591977,-9.33768102143586,-8.12444779903126,-49.8038604275616,-15.204748119103,-25.0107497836007,-5.07817443338354,-16.5467658741718,-11.2605786582817,-12.2601824307676,-8.57290946995727,4.8647829765614,-0.867989543416115,-6.3003757407696,-17.5632973792253,-24.7738653454189,-30.6958472128899,-29.006517556335,-3.1477358089096,-11.3482504865306,-5.17335586161153,-18.0893898683853,-12.5152020243713,-15.7217950848926,-10.3436112347044,-13.3723182260346,-10.1522243749005,-73.1407861908847,-63.6226562034444,-60.7795824712066
,17,519.071674645525,3393.56636282343,2230.80827377095,-16.7619501367517,-6.8149934373514,0.151518828313783,-36.6624818356131,-41.8263770780195,-27.5703595813047,-33.8642709102442,-79.8463001940636,-41.0716493719956,1141.87918369371,1851.66925025428,1515.08573435162,16.7928286720471,32.4984082450301,40.4930806568191,5.28012513205067,38.9734947081779,0.592854911227732,-56.1417708536519,-32.283433303488,-66.8534988678348,387.862353238307,703.336097023801,541.233511971357,-8.24019019471234,45.2644598813331,65.2063182418024,24.4689695965699,13.7827920783002,11.7646200839008,-12.9701112015082,55.2758786526265,29.3692543314264,33.3995598774973,82.8859926325658,39.5558077838159,11.2955518755716,-3.63724082201588,195.602277692255,91.5966726265706,65.8074118234799,43.9826483040561,-11.9538975818759,17.0717596999493,-3.94954470657467,-4.51536021385709,-29.5450158738395,-29.6019251284451,-46.6333867240337,-21.1937023033288,-29.1709739611106,-55.1668069611242,-72.4658991692831,-39.989903138212,-16.7919431024384,25.9555839686536,-17.6407155570787,-6.25913950719951,-26.7379163588821,-23.8644887784949,-11.3323009654432,-9.74432753629662,49.2255939686293,32.0019785503655,10.5805219871263,-3.37032144432396,-35.9868522991537,16.1130420523023,-4.50093549752273,-9.26602769699275,-12.5419772390487,-5.19107679522949,-16.9723966072861,13.3637609776224,56.8350102301683,30.5835882452175,11.103182908606,-20.0708680342086,-25.7785566342,-18.5074106605689,-20.0789863036343,-3.34658780940117,-7.65177187742938,-10.2528940191678,-22.683125374655,38.380993933406,21.9221474616697,-0.415036959177087,-12.6127078868858,-13.2868586201084,-76.7803426856062,-63.9501622302087,-49.5339733287274
,18,742.246053477092,4851.29970314611,3222.26998932386,-19.249994096288,29.6598850689443,18.6621779715761,-22.2351974664807,-30.7796156941713,-18.7913887124287,-1.73089952359624,-76.6913704613798,-60.0858799034504,1740.60248761742,2796.77591419413,2297.08681392044,46.8537573583526,64.4042016837266,73.6709199493871,18.3348672566663,66.3324836795509,37.6355073464956,-57.6963566735758,-20.1314713121083,-49.4651048008891,674.297806211024,1194.60744012921,906.542727584711,23.999013715048,106.990938389584,149.724658076812,88.7067539924428,60.7793845911074,31.0287604856258,51.4536422029196,149.716568927841,127.3082398604,87.103429243587,166.400012061898,101.132310366621,36.9033145166322,1.42183217115598,396.791874725131,190.249250791465,114.139668304344,114.472394803928,23.2056734440102,92.3184099155333,36.729900580729,-9.42616942168479,-16.0920561814582,-20.5237958538992,-39.5000746117012,-19.1397583871603,-26.4398762548553,-48.2191712795102,-60.1980658099455,-33.660867088749,11.3981406806015,58.3421382525485,1.80726441943534,-5.99870210050358,-35.1713468593098,-26.9814973133698,-16.1858322497519,26.6244166412826,110.313912324797,84.0419298718653,18.4503366179579,-1.23558801957734,-30.4370780826112,72.1815786372881,27.4470878482434,-4.34277581774586,-14.7960930855124,-9.90726342469407,-22.3116776065253,52.1335958579848,119.00341022784,81.2844657921905,19.8214113762297,-14.2078851290717,-14.8398404315594,-7.95599349835356,-6.84363483440393,-1.92263003512926,-9.28739076463171,-6.13156047627763,-3.15485699309011,89.2492029182158,58.9791693708985,30.5894970606287,-7.93075432023124,-8.30000061252576,-88.0069395948958,-65.0702518587314,-54.3401350186559
,19,1059.85825634777,6853.16679043278,4620.99610752708,-14.4401524753803,80.4827422940107,83.7049349266335,-8.98018015357684,3.48477096912029,-7.12287442487559,10.9614502412351,-67.7323608707302,-68.9815550268286,2621.7338007733,4143.31809437306,3434.14861831441,111.702435686118,142.634004853317,147.302622612651,49.3441818729207,119.213842514846,93.9598479150272,-46.6303846844203,-43.0059849813733,-66.1899801407326,1136.36051787823,1996.61487648216,1502.13023514022,67.4867170589878,208.884271395297,306.147688500516,202.57257126064,133.235885626858,73.6496005424269,181.481148214805,349.797258497281,274.466434021208,175.181065799597,328.9468305204,232.430467146367,70.4341895423677,19.8127431692283,743.924820852577,361.788339424265,258.226741536375,232.32372156595,97.537146518438,206.31361162408,113.538096637454,-3.1333048623037,4.00110118059365,-9.36286146014027,-43.9566503724536,-17.6882206691698,-29.4386803808502,-33.3318218703389,-45.4314467877248,-22.2104355277352,26.4240754528619,148.7496619009,31.3092803764193,-3.5322589142188,-30.3512377431771,-22.9031266339307,-20.4820962998019,72.6741189807026,226.575899508963,207.673664244126,59.1995416587979,15.4574078291744,-20.4988607048936,167.760548930556,95.8236116546905,-8.39741595265605,-5.71350933740905,-12.0565378890969,-13.9314636377012,125.265204814092,241.12494453563,170.958110431884,66.3011746530519,-10.4176040718285,-11.7155694040257,41.2931702467104,25.0463645772188,-3.46003870617733,-3.84737360949657,-12.523281622397,26.6513803647613,214.221589493718,129.742327461011,62.8014011513505,-4.55074437058011,-1.04064710940656,-93.5625929453436,-71.5026158459787,-62.2870649359538
,20,1507.3386677183,8949.17913856078,6387.67948925049,1.73902957659448,174.772954597749,174.807606443291,29.5886642321384,41.4686519682236,42.5538222675532,53.7368329404253,-97.1678246676984,-56.1560780424043,3851.44875028257,5934.78887417204,4991.78169059048,225.857332122094,295.195767351499,296.596806834182,117.435529846302,210.768250322531,191.030608299307,-70.1737859626319,-3.7466824183557,-57.4707902364116,1826.72029520609,3206.26622437735,2396.46184609285,152.538094481438,395.501566001174,565.733733433574,401.660350421571,277.794436211887,161.995709477413,379.122623505289,657.33660211055,498.93668562687,314.470631815826,571.331353551074,417.487383243331,149.107139032038,44.4929478352078,1323.50346852137,670.600749779172,477.408434716186,434.787841836491,219.860172570941,414.101871452813,247.955643772964,-2.59279260605217,38.2859419688111,6.65091309065065,-43.7186635894741,-15.8342319513722,-19.7362561951977,10.8337266884773,-30.7264578362738,-22.6603403323479,63.5512848719745,291.723591543801,108.632545987025,-4.72208097757539,-30.6794781236767,-19.0128509194983,-3.6915262194716,158.028576128242,441.463892371934,389.319859180277,121.976788995164,29.1694087575506,9.24371050988157,323.329199652895,210.84214052956,-3.68429415875744,-14.9504684613466,-14.4113295678017,-13.038407651733,232.273866133389,462.061227704026,345.679249136048,140.772123733006,-4.09548053517574,-1.45056240155918,109.373180925216,95.9810402478679,-2.47343800589624,-6.55262369609682,-12.5295229115582,75.3315273985527,399.862424817395,275.752945118371,149.135451645393,4.25862713473452,18.5370269178939,-77.0934535047018,-69.2217638367893,-65.3199774577006
,21,2156.74377306288,10953.8368912258,8426.11607543487,31.492956607497,361.808174407287,367.702410126741,121.318524556017,128.632178721457,102.386297198975,113.786422451863,-36.5192919876572,-52.7587031834919,5538.29510857931,8087.93941864413,7053.83865701192,425.584531949084,553.806157579029,538.372494892752,260.42491300829,423.942518432948,369.483820333437,-31.067789962397,20.1024290059249,-46.3095254464315,2910.0451772064,5066.16846864833,3806.27217694763,319.105865880236,735.087060310212,1045.58934949649,763.450610083029,551.796577642917,327.10000291337,719.300875477025,1194.42544038733,911.45002482499,534.858554598596,983.741482793897,744.868927661059,311.210653206053,95.5261144275883,2283.24004256165,1204.42609822595,868.148867548025,805.884050840012,470.166977466572,784.285130407323,479.040543094381,-8.29777095128338,103.518156430596,41.1509677500871,-33.832516940708,-3.05418104378896,13.6299263693163,75.012189840254,9.32046584726231,7.70227552395227,144.370732368197,555.168559169206,237.457923391326,0.01430518662346,-28.4559654189152,-4.70659178662845,5.75974577180841,315.587204167492,807.795938647252,726.159864466807,269.723648542743,74.8773949232755,54.2918919004524,617.337792250072,407.649473252943,-3.29308031966775,-18.2194163106969,-12.4974285142625,1.93975834782759,453.975020273217,833.684133918389,666.559306347945,262.959500363533,20.5893718496463,28.8542756359493,254.475630745125,199.202063744127,-2.94599837510032,-3.48765075826668,-5.80852220110319,176.93466619519,756.222354562486,532.48542366223,307.0005063811,30.9329476017101,59.5196200189885,-74.7374392500715,-52.0887985207974,-55.3756313668964
,22,2904.82789655806,12761.4417673591,10419.4135805303,63.3865910195991,602.366095974418,615.21298108302,253.619843116607,268.165181026378,218.119245443095,169.942671901968,-28.7569147706818,-72.2903942246703,7407.78161213973,10222.1709910425,9208.65130354271,695.395250100277,886.068863172646,873.383300811186,429.578923208577,686.700007156143,587.723736254648,-43.3882872909526,30.3036275603627,-36.8685954794109,4202.07222962942,7187.36102873535,5454.51710069015,540.718551277193,1203.2896605271,1668.67172927521,1246.06516397658,918.162143545775,562.450664337224,1153.95945618374,1904.33149496421,1437.62405935871,803.367631267841,1507.09137884201,1153.62588699654,510.150456254916,165.481995050119,3395.39661720531,1903.51653120477,1405.34740918928,1315.18569193404,774.466745566435,1265.12714572272,784.996235037173,-7.14055814098901,186.90050482478,91.1565367486728,-20.966131922055,21.2993988451972,36.2721408454609,174.908887028381,77.4690073585843,41.3087109335374,265.615761908497,939.219653539008,432.47504838753,-7.06612758554274,-26.6778324831985,1.72614336903916,16.1088408003452,549.125061315733,1340.77665279146,1226.50992131301,438.326374776327,153.016594764964,113.208104958079,1031.51925056661,720.973479759024,-10.4270509535736,-16.5929292998235,-18.7789578527845,16.817979192464,745.484123262288,1363.36130289978,1077.81787393804,459.761264304143,58.9991872537557,79.5834146301959,460.485799786471,356.679885830491,-2.81299213834609,-9.11497449481703,-7.52113357693725,324.171637944396,1240.91602402512,876.525134788603,530.606997190795,80.3030400750658,110.599369430871,-74.5037849959281,-43.7066911127604,-22.5156633209372
,23,4058.29518013126,14248.6535268661,12292.791021598,159.561244998249,1094.19048957022,1118.24645923898,529.576491685009,567.164504074207,437.257848770771,351.668844053598,-6.84475865493005,-12.353482441802,9389.84499372863,12232.9402363167,11399.230089257,1224.23704417308,1541.45983095026,1516.85478046208,788.571951725397,1240.84122660885,1062.50666334766,5.25971461347217,103.270841794621,7.60328326672061,6132.10372257047,10017.3227742227,7945.43583898733,981.139901704475,2067.51588937579,2793.33527190539,2100.46924726067,1574.7624117239,1023.52384240694,1898.85518145104,3018.36833198828,2313.38072396202,1276.84178987636,2426.19080078201,1886.41902914785,889.344714270761,339.302072767252,4971.36063212734,3098.78455825943,2395.31222667918,2217.32056654809,1319.66940264899,2124.33854401899,1361.2055811636,-11.2036763925444,338.552073805443,180.03561109291,9.25998579842872,71.3172349689439,105.585308268794,379.329945308564,207.139730526062,116.331827326225,494.117449459004,1634.48892613983,773.163696821055,-6.09094217805705,-11.2773721875346,33.1208159201806,54.3658041564231,979.614947600498,2285.1203216866,2108.06720644575,798.015568925936,284.430714883026,242.834698981475,1801.53010790867,1271.04869007476,-7.42096487025083,-17.1596929296002,-16.6083742327401,63.785841929719,1295.63852168212,2317.4807632601,1861.98951108036,819.307656450932,141.320566512002,167.313487069349,860.431663116833,677.655785750348,6.34766529672106,-7.8523418236955,-6.66675239059168,588.029488503376,2098.28402667203,1527.52978207916,920.483296430129,169.709847485129,229.655680118593,-61.844498398681,-23.9332784035323,2.83980771494498
,24,5678.44347901645,15445.141488844,13918.2245819008,343.253413057652,1992.43200475251,2046.12644060414,1073.88823615978,1152.29671652388,906.659112894722,647.843593660495,119.957257820131,51.9785588099621,11282.8907985957,13968.2611075361,13398.2609345062,2113.21818536668,2653.23735413974,2600.25069075261,1429.01363910898,2199.11283538304,1858.23874018019,104.011608750747,266.386080897697,84.3298029609305,8375.44683476529,12590.7104287229,10345.4821662125,1786.16241744642,3488.78496728234,4570.53831667084,3437.4764527965,2743.63845185622,1861.06509895074,3083.96053191541,4641.1817018083,3620.88300807722,2048.16769326739,3956.96853671298,3131.5488579334,1597.39102354823,641.39419837332,6398.75650450271,4781.96574668633,3967.47977263816,3644.46438381189,2264.17797870214,3492.46802749764,2323.94570400423,-4.10500452115775,609.480374275179,350.793612555019,72.5909307322881,166.667104035257,252.3817288472,786.24444426212,473.732695415658,270.134865244019,912.618845496237,2851.10311232715,1434.10135944394,-4.56511118699655,18.6553713880221,90.6456321170563,144.870633134381,1745.52972105754,3869.92981282741,3615.16338325191,1439.20485200606,546.611826890504,472.668817424225,3106.91411001551,2258.3750554513,-0.851208157620022,-13.1079649764606,-6.08146201264208,157.364031032152,2252.99728146303,3852.77436199468,3134.2366623803,1458.92844927309,294.180297907546,334.168084433184,1551.21745360234,1229.72451277443,-5.84837228063589,-1.44914322145542,-6.22013286065976,1061.83206222971,3495.50453007648,2655.56269218848,1670.0645597562,357.530682819715,441.084295667496,-38.1051173646101,18.7992916932162,88.9865841182345
,25,7423.76096609241,16337.596551321,15205.4080968986,597.95347491358,3112.1270486072,3199.99202227282,1883.82430478951,2002.45133576764,1577.5904818829,991.74297957473,212.097116808758,167.455525792866,12889.5007827026,15314.9692657772,15016.4500842632,3236.07852250032,3980.72141721419,3889.04595146864,2248.74299044786,3344.22172246409,2826.95666221769,184.243300936518,420.770356465282,215.565719878809,10429.8011173908,14927.5220451142,12564.0848128091,2821.45725034097,5102.92869319185,6325.03071636837,4668.62520093899,3985.03766171482,2885.03569712296,4366.18539850164,6235.35380828473,4970.0248056808,3005.49988376123,5803.56158452903,4678.83975002277,2502.05307871708,1070.03086237413,7436.13668162289,6298.68503142416,5564.10004857916,5154.18468428427,3376.69990661317,4977.51339169018,3462.06199587962,-8.29118378317162,940.641703791598,549.388686252454,171.374517975829,313.216096712168,482.976703280399,1337.97051083244,876.206793955658,485.122064244259,1497.00070203133,4377.25060562124,2302.01428887894,-1.86248011512998,52.5053962783277,169.263791555911,273.115333569014,2787.06408374351,5673.60193521728,5343.82184096523,2322.85772806604,906.853117576647,822.287511845356,4719.53576856443,3511.63295420447,-5.47846513050445,-11.4640547583413,-18.9639231368747,304.621836476421,3470.58299220327,5600.14649221458,4595.33554782633,2312.36937197229,518.496797435182,585.756827484826,2517.12941011121,1999.56778619533,-5.12691988993447,-1.77482768269147,-5.80539860434601,1754.36534210636,5114.36450577804,4032.63989039632,2648.54659676229,642.417522260655,766.731176323504,15.8918409873968,92.4152026423781,224.397904074092
,26,9300.06342088555,16985.2570937748,16161.9035669836,1103.41574544822,4892.13893632439,5024.72350012424,3265.1131186312,3499.32476476897,2808.17890566055,1583.46033608343,500.16612491691,372.281599494607,14133.7051824918,16302.019953501,16220.0464011197,4886.50839940689,5835.83522428995,5712.9705000588,3569.25338014586,5031.00051541445,4214.95264942255,400.709879075081,747.713640720076,414.723604022282,12181.613379437,16725.2026394947,14350.0016307899,4473.64884187986,7177.87665364228,8153.2890719146,6012.82991686952,5649.60952550463,4431.73216530341,6008.69379651038,7919.71212617957,6486.66436240699,4493.00127634979,8479.32924555497,6987.44302370782,3924.31870657052,1862.42612839939,8065.23326755025,7671.79066945194,7360.7578087711,6804.71677534954,4857.57004905092,6847.97401449474,5005.9218629819,0.368596110550243,1502.26961459231,895.609806666787,367.742877584892,617.578058303769,928.759017333645,2300.15491794435,1594.54017270999,923.324428621203,2502.48515784374,6566.00288779747,3739.15266188126,-0.764893801668222,121.986234623459,311.540783508219,513.390909441124,4420.41738871784,7899.83275923348,7570.44278622905,3789.85210285944,1583.94553378027,1443.70416385409,6951.09497327807,5358.92253893962,-2.52077663488126,11.0546893505179,-12.1683115693286,598.523928090394,5288.86753940756,7722.38978481933,6483.99894843824,3628.89426861849,953.758556252096,1051.70150953086,4090.03222192109,3304.46054610921,0.704309099736747,-3.68964206418786,-8.88751063805921,2908.01150494665,7177.9777622316,6022.23280806098,4177.37982009677,1152.92797051324,1349.52285666865,119.824604258542,251.499052716132,500.74568605877
,27,11190.0289268008,17474.6803341055,16899.1058172298,2042.12176615286,7202.66034474168,7425.45987274852,5457.82536922779,5889.95467428282,4832.99678454014,2449.62367596351,965.26083060792,772.28881958059,15096.5926419972,17048.0054245439,17146.6879210383,6990.2107267956,7907.04648945657,7639.17220997805,5429.81972633014,6914.72080071001,5881.45153445737,777.971047969904,1325.0828275217,777.23914075424,13589.5558519951,18102.6618962415,15734.1707556204,6769.0502135957,9003.55517179548,9623.02577752109,7147.90636190666,7240.10205460261,6451.15418998131,7642.03157284332,9396.51068520846,7858.03842420762,6613.19316789618,11102.1672599129,9770.9395565578,5909.67088198488,3233.86842418538,8516.36453361109,8783.65902477433,8869.58327347398,8208.9306362105,6475.06495370689,8538.96139864636,6713.1320759275,-0.948792316889012,2454.34046900252,1469.10040646839,758.455662630456,1189.46882219136,1768.52388823851,3831.94919477369,2813.9874713605,1748.49337283127,4197.15988493988,8906.22634732747,5870.12832943009,-2.72934460040324,256.701719999328,571.019151702991,996.530816196727,6774.17692064224,9774.52846139082,9497.34029626543,5936.29047161822,2765.84688711691,2537.36891802059,9172.81519532278,7538.98686889796,1.66480232809681,31.3139971948031,-0.0345158948866811,1179.08477164925,7520.3226544528,9543.65021281836,8302.08404153319,5474.67704365192,1735.15313818413,1882.4269557314,6437.57308050347,5308.39479911896,-2.44124687319436,-2.83938721560844,-1.5859894111918,4714.69768718308,9044.03503608042,8249.51121789677,6350.10546324089,2073.51033217485,2404.40737800172,339.50663210626,548.556560297337,1000.98518578011
,28,12830.0572332697,17810.580005538,17425.7708809791,3443.37847222041,8875.24634747515,9105.87389596597,7597.65142617466,8227.7437765583,7105.18275980089,3304.91644243277,1581.78325196532,1278.37104464714,15777.8717478303,17564.8861010991,17801.4147064725,8497.3693028388,9552.65355211377,9161.10204803245,7009.84834993781,8407.61102587065,7012.63245934531,1284.44095933376,2120.87355940758,1321.70215641533,14594.8984309666,18948.9132984425,16695.5845582591,8621.6029788207,10355.2957765227,10603.4846682869,7988.32534083097,8474.80314335982,7920.63341545152,9026.14856156977,10541.6806542175,8958.94225289831,8864.06238821749,13444.8826538328,12265.0168622308,7569.62275013634,5060.84529115952,8828.55650216029,9553.2060650103,9931.01034355703,9213.98433191735,7857.24276561864,9867.43467038237,8154.08077023423,0.417137775491938,3734.30747411386,2264.86318078787,1404.16488298391,2123.96311720971,3083.17125734289,5623.47268629846,4449.34726733695,2965.48100214344,6305.84409945179,10718.136645057,7989.87257861611,2.19156083215694,442.46015253755,971.477594304962,1795.1515350084,8909.53513335054,11053.5865963018,10897.1896973671,8154.12195256659,4413.92966610063,4113.34869142751,10869.9280510692,9305.32141022275,0.381457117992795,70.961708045209,13.5170001156957,2128.36267445491,9390.90734098899,10840.8592171366,9764.65359139513,7216.62608711867,2915.16613830789,3159.6097567029,8812.49682952436,7541.98987277435,-3.26154541685719,-6.94421474885985,7.76757086747693,6925.92725758111,10512.8144801963,10115.5746662189,8269.82351421196,3470.96865385156,3959.9933882034,694.081833141758,1084.70883330939,1849.34262515001
,29,14133.1260906278,18034.8117472827,17787.5246194057,5256.54561168816,10210.3408909664,10436.6182284757,9528.7248992413,10319.1753146932,9067.28189984573,4129.13996497027,2373.76627704796,1914.85798697417,16249.2492130146,17924.4794838861,18255.4601231395,9711.83685588582,10723.4249908167,10223.8436466498,8365.17954269434,9473.738908667,7931.57279771372,2001.99048176942,3024.5091730798,2015.92224496532,15267.662655764,19515.0226896828,17354.0226161667,10151.0389488747,11224.8294636467,11221.0301828003,8545.415274704,9349.06301290827,9150.46455390288,10108.8492082949,11353.4366403227,9771.49567522283,11022.7730938003,15255.7042198757,14339.4029432552,8977.44019117205,7114.1761089288,9042.47206644366,10048.3690941894,10591.7635189556,9867.99532444465,8950.63807938305,10811.5145943673,9276.69511828132,-0.76516477019868,5388.64492279736,3324.902522558,2394.84188464599,3495.37917334645,4854.87752603309,7200.65020001907,6187.50023440487,4615.44235109146,8526.61452516395,11927.3103713659,9848.71821383502,-0.821421996385652,715.668785068006,1527.34002740515,3045.54501883571,10699.4632226613,11761.2255839381,11743.2189120423,10148.0574435224,6524.14058361873,6117.42594368715,11971.6966626642,10567.4030881923,4.04102253968722,134.545087104728,26.1522306809884,3573.47681918928,10795.0129320898,11639.3256450972,10819.4749537573,8756.78343953501,4562.5799286144,4927.60585710645,10906.0049529483,9609.24468901576,4.69143417244595,1.98980103035592,10.2984953033338,9102.56695978581,11504.6669311043,11518.9254432885,9896.14152529396,5354.7213791049,6007.85257502968,1304.44398050014,1937.31567941267,3107.92112170808
,30,15145.543819806,18202.7828454188,18065.1187440517,7682.22794377579,11126.9289639967,11350.7261194406,11041.8527569648,11967.0271093374,10784.3314284258,4878.66575094454,3426.5692311461,2740.76033926174,16609.5692501271,18191.7728489819,18579.2227610108,10535.9632638224,11523.8452303071,10938.3014966178,9394.3577345747,10228.5525966816,8584.69821031259,3080.12458117324,4279.54633786692,3034.62701016849,15747.8201466391,19917.1837574324,17823.3703405306,11248.7743807208,11820.8154598675,11673.4625340586,8959.808311516,9972.85273454484,10055.2689441321,10939.5911430019,11935.2620708008,10352.2714942543,12936.1856809631,16590.2229414176,15915.2084682838,10025.1662635042,9130.5841202903,9196.35005423397,10424.3570549898,11059.4586296421,10319.3450437037,9775.81933985123,11471.0879678469,10103.4223414262,6.72881052132652,7818.96095268032,4940.81092016508,4054.33066583754,5630.29439855153,7312.87060353623,8584.78070998791,7943.42771172563,6755.99779048798,10586.5971259977,12701.7182312937,11294.4639329865,1.23465531299007,1158.82980270982,2469.22233608321,5121.53247735791,12003.1115000315,12211.6877576445,12285.7903648846,11730.1952979168,9061.48299241848,8591.61707671408,12677.3197170268,11417.5225814321,10.0296759587864,243.009007829586,64.6206257340291,5834.00821590937,11772.2325425902,12194.7355395833,11574.9455043985,9974.41137141631,6817.73015647501,7402.47344633217,12538.5928817161,11330.9026652166,3.71871985358212,2.2797127617614,10.4483188922159,11034.7128945323,12177.0120591615,12497.07728028,11100.3593994232,7859.499702418,8575.58304041185,2356.30577004638,3376.35718115888,5094.41614495997
,31,15940.1983929541,18332.9390989743,18264.9934917163,9883.3254315218,11838.1142141245,12047.6879532494,12170.3596861528,13143.3636452816,12097.7607936019,5528.91359330359,4564.19521904663,3662.32568506619,16881.7356451293,18404.4466966663,18833.9150693969,11116.9088556618,12089.6541666141,11445.6127724889,10192.3478610312,10817.5120818142,9089.89629403021,4451.22485330444,5674.17632848512,4313.72352373037,16112.7843357705,20224.873347836,18185.2020579472,12025.1764760536,12287.599410958,12032.7172160511,9266.20478723001,10452.2945206102,10713.1880492265,11574.5215205113,12369.7747344412,10794.5979416796,14513.3402382131,17571.3426678,17086.5812847915,10778.3673314753,10759.1430610585,9326.06052946432,10713.3843944025,11436.5728173347,10671.4346864005,10422.4832917567,11961.037484095,10724.8707494609,10.4372518589644,10309.4475976271,7159.29416515486,6371.0125717886,8176.23203892974,9568.63178616018,9628.36155174637,9365.91773288614,8713.096553208,12279.568897613,13276.940092384,12349.1480871958,8.97839610575284,1861.33943777935,3893.67478455468,7902.04837381164,12932.9350591891,12592.931036315,12715.1314021306,12888.5464035763,11348.4588458452,10807.5042501172,13204.6665157315,12024.5247489555,25.1993576832556,418.470744621844,128.742890974817,8636.36754584435,12490.4047721151,12654.1240518528,12126.6358985567,10879.3525459414,9137.85094513511,10041.4398611045,13711.7627626328,12610.1488927555,11.3985783164435,7.92916102905201,34.1123162168342,12527.5960186344,12676.4656502247,13193.7392390556,11954.151047433,10194.9371876948,10903.1734610332,3943.46426649214,5458.59461684137,7471.18770745059
,32,16530.6334560461,18435.8599631822,18416.7107547942,11652.43149727,12349.2654395316,12551.5580167964,12870.4970606652,13888.6219926459,12968.6190182281,6052.75606744075,5521.92324914564,4527.15090079425,17081.4947005096,18553.592468495,19022.4895662119,11467.3626181468,12434.6876934261,11759.8143140916,10748.411186174,11238.273855639,9440.92769000672,5866.77477727533,6820.18611756742,5603.00560083831,16388.9808484145,20434.5524436005,18437.4275593204,12499.8017919925,12590.5821419934,12256.6826161572,9477.00694119052,10760.8175972065,11139.0521166437,12022.3291952327,12688.1193852696,11107.2120876444,15677.9982946296,18257.2328270693,17902.7337451277,11262.8517866092,11840.1074917901,9415.09208260482,10919.6169613967,11682.0246984156,10902.9148090705,10892.6144693298,12298.6081630955,11156.1623049723,19.9193063965622,12732.2540553247,9483.77474178591,8814.39342359572,10391.9643207898,11324.8946789733,10322.7399837666,10356.3230481845,10280.1098474397,13431.0446589691,13674.0839909046,13063.6230480718,20.4506774403289,2904.55341929444,5845.43247048899,10583.406480204,13567.7542758964,12870.1339875186,13011.2374952409,13627.7624207625,13143.1884933919,12528.0900171184,13560.4137843073,12444.5550989262,26.4036427438168,696.29887199888,225.936544360537,11163.6826740916,13002.0556722191,12974.9974315839,12465.5491894166,11458.4287814882,11030.8581610006,12281.781000803,14467.4551518996,13437.8481767043,20.0421706051347,11.1178522889486,42.9961319187214,13521.8276560207,13012.5952532673,13649.6968094815,12492.4317566711,12126.1032853498,12742.9418467437,5944.56770967869,7859.84171034461,9474.97082031741
,33,16933.6637026284,18497.697834835,18510.5263723646,12865.8073228193,12713.5860548258,12905.2314343843,13325.992168892,14337.309268401,13519.5530527728,6413.11857263875,6308.68430411342,5130.56999645771,17214.1384139289,18663.4284247336,19157.5491699661,11667.3432680042,12641.9807822269,11949.9233897231,11111.9159689474,11491.208122152,9671.89416326495,7071.33709892734,7816.80300751921,6662.08110629693,16589.1442865987,20594.8683408237,18631.5118427197,12744.3890247092,12760.8866693763,12391.9674097593,9616.21535360972,10954.0311819476,11386.2760966474,12338.7667711699,12892.038216499,11324.39159172,16517.1343649503,18735.3885095722,18478.1894941443,11532.7398113179,12414.4898842433,9473.89116334039,11041.3860580713,11837.0731723967,11057.1532577896,11208.6218107112,12515.3858118791,11467.1647361696,40.3062618676649,14798.1011865278,11784.9898714724,10878.5271231355,12007.9057346078,12379.8005183949,10769.7228396837,10985.8402169407,11328.9401187844,14117.4498365647,13936.4369857676,13519.3424087296,30.705888420488,4412.20785041747,8265.90943247883,12758.3985228084,13988.4785928516,13057.8365339064,13197.9972660836,14068.3746772985,14316.4188565125,13601.7086804435,13788.2207326545,12691.4442444055,50.6965205401011,1126.75756310353,380.536854914007,13130.0500995239,13332.7904279214,13162.9282511036,12635.7071240569,11764.2731663213,12260.8552568172,13877.4781306428,14920.4838959376,13940.7936320256,31.1866201570692,21.7410559676364,85.3295401382438,14109.4898242867,13233.3706948701,13927.143659917,12828.3371005989,13391.3325058142,13905.4298993464,7840.83603169975,9984.38174797044,11066.5135801194
,34,17206.4840043101,18534.3216709426,18582.4341056677,13593.4711034853,12944.8764522499,13130.1758970944,13611.7379712703,14622.1198195917,13848.6038119126,6637.68935423583,6861.1972185052,5577.410428326,17321.6249288021,18738.4068971376,19253.0770143133,11765.6577007969,12756.848683313,12035.8723354993,11321.8255533514,11634.8354963013,9801.59409301609,8033.66891939941,8547.12689592725,7522.90359143641,16731.5049083167,20697.6594026452,18770.2782399413,12828.0200186949,12842.1089579377,12464.6366510471,9704.4691739562,11042.455208404,11527.3369398817,12535.8093568449,13018.2768749911,11459.1767905655,17108.3519112302,19056.0938707931,18874.9445987281,11655.6262599751,12651.4314095054,9515.65764279791,11124.8184936582,11905.2247496671,11137.8846361,11404.6662401192,12652.5464711,11675.6882776238,73.3877748377799,16386.4765100578,13771.7907029654,12267.2831168811,12899.3065236993,12846.4012350908,11054.6286614375,11374.4111701339,11934.7256240156,14447.0910310703,14069.6773482934,13759.9554250625,61.8598968696824,6476.01852216336,10561.263454639,14125.0234423551,14224.9603321224,13173.643556669,13296.0024456436,14283.0478338543,14916.0955865414,14108.7409228613,13890.4369309096,12828.6357974471,77.6150285327876,1802.33354326305,632.966538504098,14310.4535323227,13499.4143800371,13267.2757973931,12679.2783226231,11865.4951251151,12788.5976189366,14745.5941170984,15150.5134133151,14197.0262926172,54.4524650781868,45.4769559251172,149.790101561004,14413.4311101945,13346.4923845606,14076.992143579,12985.3870657483,14046.7320373528,14470.0179394938,9397.58798457578,11571.3802163552,12039.8423442995
,35,17392.5433432473,18574.2093212701,18635.178674722,14069.6007755993,13137.5052400932,13326.763878683,13834.2980978893,14815.2840120689,14083.5449109056,6789.57143123276,7236.10846659331,5900.52875103768,17408.1333249557,18804.98661557,19330.0362513173,11833.5640240207,12836.6644848357,12098.6792615216,11470.1492060805,11739.4268386655,9911.23780976484,8768.50412840416,9104.48246062053,8217.11985559906,16842.5113468304,20793.4383361957,18893.7625795331,12865.8307495483,12892.7260151849,12529.281795249,9776.42058433353,11120.4702073248,11626.6477981025,12679.886951767,13116.4997372792,11559.3606768965,17551.3781011513,19317.1444468912,19185.6666997952,11718.925455083,12750.1665082826,9548.76877736396,11181.4501306815,11984.4559483879,11207.9245751436,11556.2344653081,12749.2140208213,11835.5778571004,126.52576416713,17570.307525345,15371.0939694099,13061.7424921775,13333.5673597337,13048.0025529063,11264.17574323,11642.9601702192,12321.5175732625,14631.2454151752,14178.5625055867,13904.2825845919,90.375394743618,8918.6750889036,12634.9839263801,14810.9036023708,14369.2211302111,13274.9429292106,13360.1071983959,14389.9023902431,15214.9499598922,14314.9864361022,13960.1657905477,12914.4376494779,126.951941761639,2733.79024528645,984.558080593477,14853.0666302529,13593.5601976658,13340.7414764251,12686.721418939,11893.4759261489,12925.0288232849,15167.003365323,15281.8600577017,14349.0299529254,92.6630829602054,70.3365040960462,241.05001715191,14560.9683921829,13420.4259148371,14174.6309673513,13087.1101771584,14357.9056689933,14711.1320516137,10558.4010979737,12631.5156538155,12612.7888327362
,36,17519.9007995874,18601.030383066,18672.0154213766,14346.6399565855,13283.2059355173,13457.6969828285,13977.9595230852,14943.992778512,14215.3373592229,6882.72478816215,7485.74133875224,6094.62012919963,17469.9007552587,18842.4963122761,19381.268283952,11857.1441936946,12866.8069165102,12125.0057232164,11555.2784098668,11810.0590293389,9981.07573336341,9246.44645099756,9455.87554478114,8679.45930522117,16932.456617252,20856.2146566171,18984.0283691939,12864.6155915972,12913.0154537096,12565.3437628284,9805.10451743304,11151.7368809592,11685.9184662682,12761.6041578819,13193.4681493941,11627.9777782277,17879.7489394981,19504.4526252143,19412.9015618948,11740.1378896985,12758.0024298535,9581.72854991607,11227.2936816523,12021.8096124546,11241.4065956109,11662.5786716413,12812.6124597914,11930.3711478895,233.741043945231,18415.2101708322,16562.2289602144,13407.2460896065,13485.1497035547,13113.3222248379,11391.7548316573,11807.3897320125,12535.6265080897,14712.4991022732,14237.7289623541,13970.0643233393,156.790912855677,11315.3125356975,14255.4704046574,15011.8659382437,14439.0083762552,13343.5113564061,13396.0379218256,14432.0727298598,15295.0073849451,14336.9696136003,14002.6133579349,12958.8962571592,203.210895283954,4311.28212775872,1627.96065455907,14931.8292079394,13632.3915641033,13393.4992029281,12681.6091784696,11884.2152961868,12844.0797054826,15286.990371928,15343.3049345027,14400.245010825,162.478120207556,126.405781002634,416.890339020467,14610.0973188347,13447.3632292624,14221.5958129793,13123.9097922916,14454.64272476,14752.0608183573,11302.633664836,13217.8035498075,12915.5346804283
,37,17606.4896889016,18634.8649782842,18699.5044773161,14551.1449869444,13426.880706611,13594.4223895478,14077.6905881584,15048.2187814752,14320.5630372864,6974.10069408209,7653.70216735643,6280.60941408653,17529.7732266077,18882.8602894502,19425.0055257102,11896.2307740438,12905.0216811862,12180.2911702578,11651.530209615,11887.1874218955,10066.9950031861,9632.99988519695,9753.87332067905,9046.3814431797,17021.9312208947,20917.3056097118,19071.3873110268,12879.9269354689,12949.5885804402,12613.3651834009,9840.38804966174,11202.2766157793,11736.2091636982,12843.0503304314,13243.9498108189,11680.8365608524,18132.9737929141,19672.7430319678,19599.5403807452,11781.5713261128,12770.5190819917,9611.21471362584,11279.4274285649,12079.1410622505,11286.9882441918,11757.5683899581,12884.0086991895,12013.5632125278,415.353197322386,19060.7166947711,17473.3803454803,13611.7779925211,13609.6207982943,13194.8178271244,11509.5018681449,11942.1882517536,12694.3444056607,14816.401096164,14335.2131359746,14057.6924841197,275.768159765017,13544.8067781991,15475.3945868619,15063.9796657545,14517.5150270954,13409.2524841479,13434.9915152063,14467.4856398269,15351.5024969693,14345.6096090427,14057.9506661426,13010.9070773311,326.487035421514,6313.05275903725,2542.84855255772,14844.7786072735,13684.2265746313,13442.8704768331,12685.7688948997,11893.4753473401,12769.9574166161,15338.8348035149,15397.1034159958,14448.2823568609,285.725376277354,226.030782188343,685.042737531677,14637.4047340476,13486.3790559752,14266.1666641823,13173.0529121825,14513.9045469515,14776.300459806,11817.1896334578,13573.2581768681,13139.3962838618
,38,17641.1902998068,18609.9184867278,18677.0206925627,14627.9353992737,13501.692183615,13662.7090589026,14113.3575621804,15095.7995476252,14350.5749799742,7011.61023407842,7746.22128590034,6365.20112483455,17562.8920103524,18899.6499004652,19446.6475825563,11898.9859376751,12911.5860711273,12190.6593465559,11694.4189250394,11927.4523235501,10095.9999666188,9849.20131530022,9921.70540128853,9245.05282426032,17069.1521700118,20962.670610088,19122.9949583748,12860.7958696627,12951.7304672055,12624.627880095,9842.71396826317,11199.183837342,11735.360739835,12881.6769996079,13243.2416883507,11703.5588312941,18317.7000087442,19777.730225552,19716.0138161557,11776.2404155029,12735.2858812199,9624.90434606163,11292.3845371328,12076.4264826536,11302.8574523405,11802.6963194088,12912.8517673073,12055.804877642,772.894164170645,19492.7918878672,18096.3148791537,13666.8314789785,13622.0247564137,13210.5544490871,11565.6422836901,12014.9225486978,12756.0899936776,14863.2858895623,14377.8803159412,14095.4705015258,498.369323541743,15267.9738908953,16303.8613241687,14963.7516224742,14542.3526978503,13429.8778288578,13442.317959786,14466.8030957662,15327.4577443802,14304.8671832016,14075.3049452253,13018.8337873045,528.358763843257,8821.07413684928,4000.23322825026,14646.8044427722,13692.9371190671,13459.7101532598,12668.9555873999,11868.9446198119,12647.4957302721,15293.7902545982,15404.088037247,14459.3549532147,520.089975919752,410.08628007626,1156.09260391393,14623.6817363795,13491.6542397846,14262.1279579727,13187.5780108913,14470.2178600982,14732.033426789,12082.9705303655,13702.8203352864,13269.9271836048
,39,17645.7550776283,18574.878972513,18650.4100801227,14677.8076025626,13550.4562103581,13719.3974506832,14130.6693804571,15122.0881875267,14357.675924674,7051.67987570048,7807.91238908242,6420.10089958668,17591.8454395694,18908.6898832654,19473.4128343491,11917.4127294172,12923.9626723203,12207.9636898054,11738.9792643924,11960.6041694103,10117.8746913591,10028.1125205194,10059.150539794,9391.82129170553,17112.9519184656,20990.2781093155,19172.8610750121,12847.8455113962,12951.4672580914,12634.8272709971,9845.12954657829,11201.0960091005,11728.8441274621,12901.9720233547,13235.4198093975,11716.4599155818,18462.6016108377,19863.0209844199,19816.051706587,11785.2930405532,12712.1303856306,9624.61248918611,11308.4493662832,12075.1333957703,11304.7090792903,11842.1680148765,12943.151255551,12093.7870942425,1368.71275865005,19822.4072054081,18550.8453891478,13703.8818838324,13646.2816327757,13232.395064022,11607.128544423,12062.7213550252,12804.1160437115,14897.2890469057,14418.3358989866,14136.2778368387,866.998042035488,16553.286233417,16892.0913049636,14872.8963825635,14560.6813295353,13447.6090902232,13453.5512655973,14464.2574896588,15322.6891072814,14282.308743198,14073.4875883477,13032.9626821024,865.739591081154,11188.1924913722,5920.5690022559,14485.1028138133,13693.5585038706,13457.8951407582,12640.0509927982,11846.2688517639,12569.0391466102,15265.49861512,15403.3343729245,14464.7987868044,919.803191146107,717.807346749613,1878.10546898406,14622.5759852122,13489.8896307746,14261.0996642598,13188.0929403242,14437.7459845041,14707.5708886993,12246.9208221735,13768.8894520377,13346.4329752035
,40,17634.8835312311,18523.4055087603,18617.7540506247,14713.3668572669,13576.5022103325,13733.0758084782,14136.7625888922,15132.3912966166,14325.8136282263,7073.57010677285,7858.45030997302,6421.18156214673,17608.8885211723,18904.1064879516,19498.1047050911,11926.9569136028,12928.5446180066,12218.0099536214,11760.8833950074,11975.2986280045,10120.8192170698,10157.4998458147,10130.5416663386,9504.56600037212,17145.912299163,20998.4841163411,19217.8551990411,12831.7096062764,12938.9145066941,12636.1763432131,9827.95741798794,11193.6985802,11712.821299872,12904.5967755313,13230.4218699785,11722.5675172607,18580.6226428771,19927.8956513103,19904.3018735057,11783.5941334964,12674.7791989658,9622.54678575169,11313.2864101797,12066.9889282406,11289.5917130529,11868.6619213611,12960.6223925759,12117.5561540417,2387.87564043079,20079.7040945794,18901.2491725473,13711.0756772566,13642.6216764518,13230.6979339711,11624.008831437,12086.1700807456,12827.4625640783,14890.777968064,14429.4866242355,14151.124532582,1498.05279085368,17521.8678901101,17345.4260350117,14757.3457895113,14556.7134453872,13471.0822676546,13454.0001298529,14459.3974546716,15309.361076725,14257.7114021704,14053.7676411886,13028.2407984617,1408.1942904059,13414.4078226061,8387.3718736716,14338.3424819084,13682.4394582427,13446.7780602328,12610.4491433566,11815.5744643104,12504.0033999763,15235.0377533236,15399.9457366983,14449.6563653505,1608.65794555112,1229.60737277553,3028.14279394882,14629.4210930721,13467.4161525507,14246.0913360948,13176.4976678546,14388.2267426467,14671.1767044668,12332.7206330464,13789.2857679487,13383.5709047292
