,Temperature,A1,A2,A3,A4,A5,A6,A7,A8,A9,A10,A11,A12,B1,B2,B3,B4,B5,B6,B7,B8,B9,B10,B11,B12,C1,C2,C3,C4,C5,C6,C7,C8,C9,C10,C11,C12,D1,D2,D3,D4,D5,D6,D7,D8,D9,D10,D11,D12,E1,E2,E3,E4,E5,E6,E7,E8,E9,E10,E11,E12,F1,F2,F3,F4,F5,F6,F7,F8,F9,F10,F11,F12,G1,G2,G3,G4,G5,G6,G7,G8,G9,G10,G11,G12,H1,H2,H3,H4,H5,H6,H7,H8,H9,H10,H11,H12
,65,21010.4876197543,22627.4317352121,22502.8401668011,20073.9806706205,19284.750992673,19338.7371858438,19376.5964633752,20371.8427361206,19391.5503899407,21342.3490532848,21377.1857050885,21809.7537879564,20710.832494202,22680.9999154281,22989.8689948139,19959.9648756917,20291.0291795133,19773.5250401518,19653.3580748321,19890.1686332488,17597.7254193171,21435.5263617506,20518.0309142125,20053.5938883801,20071.7234815344,23600.4518432085,22465.4643689963,19841.3225892893,20239.0976224323,19608.4887215368,19211.0716847591,21147.5594241547,21008.9625743937,22918.6364982445,22762.325296988,21034.422347404,21204.3761374509,22420.8486252387,22420.9160339856,20023.3533355611,20433.642237213,17798.3851374625,21160.0916511599,20376.8961043911,19462.5997153279,20689.6496932525,21079.1884086122,20323.5201745067,7342.10692177571,22580.2040816742,21661.682374101,20035.3540584143,20707.4302565923,19971.4873596108,21327.847125616,20759.8182999492,21862.3783329281,21036.1109667258,20139.0629023315,20105.362038737,6386.80962417394,20783.0032805942,20238.9165586801,20095.3616191371,20915.1219389267,19240.6604362245,20525.8753383359,21021.5122665122,21418.7176485026,20815.321733427,20433.8839413995,19432.5065684935,6609.50253454239,18317.9203982463,15622.9232604346,19792.0185405783,20545.0656859794,20193.9587468669,22026.9727897495,20291.2033443731,20580.2034470645,20944.257351731,21312.7304887039,20300.7181873145,6610.18662406018,6153.69074374554,9664.55146254114,20306.7916698747,20109.0266932369,20770.7266856468,19886.4211583094,20784.4090813182,20982.9715798349,19022.4233122145,20119.1147920171,21141.9836633695
,65.5,20976.8442768958,22553.7198977598,22435.8094582406,20063.9562623678,19269.3990801267,19329.9820681056,19351.0227041425,20330.3001374563,19343.3919422787,21273.8332907932,21335.2960301806,21759.1439930641,20624.1009988313,22603.7856215806,22905.3144621507,19959.7896927962,20301.9109394123,19768.9344677132,19685.7727461506,19924.3375894867,17623.0210805889,21409.0415255074,20519.7211890929,20058.8419290347,19986.0243312889,23506.0796636114,22360.4019049978,19860.1575663272,20265.5295677481,19603.40727533,19205.930897806,21140.1776825062,20996.5531044558,22866.7417455412,22721.484603152,21014.0407394889,21094.8176249819,22337.7740214263,22338.0006290504,20054.6518143739,20445.9061687118,17843.3197120741,21148.3781798974,20394.2006276662,19429.6562949669,20653.3744276906,21076.3751265723,20324.8050586048,7305.78101259669,22473.8222888762,21636.9688619601,19982.069460741,20696.7930090291,19980.9626622786,21255.93898442,20706.2589441838,21831.7975105344,21033.4912224705,20153.2196776862,20138.0521684898,6330.34133045442,20673.5454011213,20110.0353960112,20094.7265662416,20944.8198892579,19251.6954465729,20513.2737878929,21007.7592008226,21405.1676551264,20796.4767436782,20427.6219283825,19451.9049184169,6564.32132941925,18208.8551611529,15513.897318036,19787.4957661699,20549.6956569861,20231.3435926972,21996.6581144463,20239.0459543679,20578.2611391084,20932.6289542006,21298.7880272911,20320.3105123022,6567.19856922813,6098.75059109669,9575.09288862211,20268.7919323783,20065.8049785928,20732.5443108148,19879.5515744692,20766.2421593625,20964.7444792807,18969.2385495362,20059.5625923308,21136.275314106
,66,20943.2009340373,22480.0080603074,22368.77874968,20053.9318541152,19254.0471675804,19321.2269503675,19325.4489449098,20288.7575387921,19295.2334946167,21205.3175283016,21293.4063552728,21708.5341981717,20537.3695034606,22526.571327733,22820.7599294874,19959.6145099006,20312.7926993113,19764.3438952746,19718.1874174691,19958.5065457245,17648.3167418607,21382.5566892643,20521.4114639733,20064.0899696893,19900.3251810433,23411.7074840144,22255.3394409992,19878.9925433651,20291.9615130638,19598.3258291233,19200.790110853,21132.7959408578,20984.1436345179,22814.846992838,22680.6439093159,20993.6591315738,20985.2591125128,22254.699417614,22255.0852241153,20085.9502931866,20458.1701002107,17888.2542866858,21136.6647086349,20411.5051509414,19396.7128746059,20617.0991621286,21073.5618445325,20326.0899427028,7269.45510341766,22367.4404960782,21612.2553498192,19928.7848630678,20686.1557614658,19990.4379649463,21184.030843224,20652.6995884184,21801.2166881407,21030.8714782153,20167.3764530408,20170.7422982426,6273.8730367349,20564.0875216484,19981.1542333423,20094.091513346,20974.5178395891,19262.7304569213,20500.6722374499,20994.0061351329,21391.6176617502,20777.6317539293,20421.3599153655,19471.3032683402,6519.14012429612,18099.7899240595,15404.8713756375,19782.9729917614,20554.3256279929,20268.7284385274,21966.3434391431,20186.8885643626,20576.3188311524,20921.0005566701,21284.8455658783,20339.9028372899,6524.21051439609,6043.81043844783,9485.63431470308,20230.7921948819,20022.5832639487,20694.3619359827,19872.681990629,20748.0752374068,20946.5173787266,18916.0537868579,20000.0103926445,21130.5669648424
,66.5,20909.5575911788,22406.296222855,22301.7480411195,20043.9074458626,19238.6952550341,19312.4718326293,19299.8751856771,20247.2149401278,19247.0750469547,21136.8017658101,21251.5166803649,21657.9244032794,20450.6380080899,22449.3570338854,22736.2053968242,19959.4393270051,20323.6744592104,19759.753322836,19750.6020887876,19992.6755019624,17673.6124031325,21356.0718530212,20523.1017388537,20069.3380103439,19814.6260307978,23317.3353044173,22150.2769770006,19897.827520403,20318.3934583796,19593.2443829165,19195.6493238999,21125.4141992093,20971.73416458,22762.9522401348,22639.8032154799,20973.2775236587,20875.7006000438,22171.6248138017,22172.1698191801,20117.2487719994,20470.4340317095,17933.1888612974,21124.9512373724,20428.8096742165,19363.7694542448,20580.8238965667,21070.7485624927,20327.3748268008,7233.12919423863,22261.0587032802,21587.5418376783,19875.5002653945,20675.5185139025,19999.9132676141,21112.122702028,20599.140232653,21770.635865747,21028.25173396,20181.5332283955,20203.4324279954,6217.40474301538,20454.6296421754,19852.2730706735,20093.4564604505,21004.2157899203,19273.7654672697,20488.070687007,20980.2530694432,21378.067668374,20758.7867641805,20415.0979023485,19490.7016182636,6473.95891917298,17990.7246869661,15295.8454332389,19778.450217353,20558.9555989996,20306.1132843577,21936.0287638398,20134.7311743574,20574.3765231963,20909.3721591397,21270.9031044655,20359.4951622776,6481.22245956404,5988.87028579898,9396.17574078405,20192.7924573854,19979.3615493045,20656.1795611506,19865.8124067888,20729.9083154511,20928.2902781724,18862.8690241796,19940.4581929582,21124.8586155789
,67,20875.9142483202,22332.5843854027,22234.7173325589,20033.88303761,19223.3433424878,19303.7167148911,19274.3014264444,20205.6723414636,19198.9165992927,21068.2860033185,21209.627005457,21607.314608387,20363.9065127191,22372.1427400379,22651.6508641609,19959.2641441096,20334.5562191094,19755.1627503974,19783.0167601061,20026.8444582003,17698.9080644043,21329.5870167781,20524.7920137342,20074.5860509985,19728.9268805523,23222.9631248203,22045.214513002,19916.6624974409,20344.8254036953,19588.1629367097,19190.5085369468,21118.0324575608,20959.3246946421,22711.0574874316,22598.9625216438,20952.8959157436,20766.1420875747,22088.5502099894,22089.2544142449,20148.5472508122,20482.6979632083,17978.1234359091,21113.2377661099,20446.1141974916,19330.8260338838,20544.5486310047,21067.9352804528,20328.6597108988,7196.80328505961,22154.6769104822,21562.8283255374,19822.2156677212,20664.8812663392,20009.3885702818,21040.2145608319,20545.5808768876,21740.0550433533,21025.6319897048,20195.6900037502,20236.1225577482,6160.93644929586,20345.1717627025,19723.3919080046,20092.8214075549,21033.9137402515,19284.8004776181,20475.469136564,20966.5000037536,21364.5176749977,20739.9417744316,20408.8358893315,19510.0999681869,6428.77771404984,17881.6594498726,15186.8194908403,19773.9274429445,20563.5855700063,20343.4981301879,21905.7140885366,20082.5737843522,20572.4342152402,20897.7437616092,21256.9606430527,20379.0874872654,6438.234404732,5933.93013315013,9306.71716686501,20154.792719889,19936.1398346604,20617.9971863185,19858.9428229486,20711.7413934954,20910.0631776182,18809.6842615014,19880.9059932718,21119.1502663153
,67.5,20842.2709054617,22258.8725479503,22167.6866239984,20023.8586293569,19207.9914299415,19294.9615971529,19248.7276672116,20164.1297427996,19150.7581516306,20999.7702408271,21167.7373305492,21556.704813495,20277.1750173485,22294.9284461903,22567.0963314976,19959.0889612141,20345.4379790085,19750.5721779587,19815.4314314244,20061.0134144379,17724.203725676,21303.1021805349,20526.4822886146,20079.834091653,19643.2277303067,23128.590945223,21940.1520490035,19935.497474479,20371.2573490111,19583.0814905029,19185.3677499933,21110.6507159122,20946.9152247042,22659.1627347285,22558.1218278074,20932.5143078286,20656.5835751053,22005.4756061774,22006.3390093097,20179.845729625,20494.9618947071,18023.058010521,21101.5242948474,20463.4187207667,19297.8826135227,20508.2733654425,21065.121998413,20329.9445949968,7160.47737588054,22048.2951176841,21538.1148133964,19768.931070048,20654.2440187761,20018.8638729493,20968.3064196358,20492.021521122,21709.4742209592,21023.0122454492,20209.8467791046,20268.8126875008,6104.46815557627,20235.7138832295,19594.5107453359,20092.1863546593,21063.6116905825,19295.8354879665,20462.867586121,20952.7469380641,21350.9676816214,20721.096784683,20402.5738763146,19529.4983181105,6383.59650892666,17772.5942127795,15077.7935484418,19769.4046685361,20568.215541013,20380.8829760184,21875.3994132333,20030.4163943467,20570.4919072845,20886.1153640788,21243.01818164,20398.679812253,6395.24634989997,5878.98998050134,9217.25859294603,20116.7929823928,19892.9181200164,20579.8148114861,19852.0732391082,20693.57447154,20891.8360770643,18756.4994988228,19821.3537935853,21113.4419170518
,68,20808.6275626032,22185.1607104979,22100.6559154379,20013.8342211043,19192.6395173952,19286.2064794147,19223.1539079789,20122.5871441353,19102.5997039686,20931.2544783356,21125.8476556413,21506.0950186026,20190.4435219777,22217.7141523427,22482.5417988343,19958.9137783186,20356.3197389075,19745.9816055201,19847.8461027429,20095.1823706758,17749.4993869478,21276.6173442918,20528.172563495,20085.0821323076,19557.5285800612,23034.2187656259,21835.0895850049,19954.3324515169,20397.6892943269,19578.0000442961,19180.2269630402,21103.2689742637,20934.5057547664,22607.2679820253,22517.2811339713,20912.1326999135,20547.0250626362,21922.4010023651,21923.4236043745,20211.1442084378,20507.225826206,18067.9925851326,21089.8108235849,20480.7232440419,19264.9391931616,20471.9980998805,21062.3087163731,20331.2294790948,7124.15146670151,21941.9133248861,21513.4013012555,19715.6464723747,20643.6067712128,20028.3391756171,20896.3982784397,20438.4621653566,21678.8933985655,21020.392501194,20224.0035544593,20301.5028172536,6047.99986185675,20126.2560037565,19465.629582667,20091.5513017637,21093.3096409138,19306.8704983149,20450.266035678,20938.9938723744,21337.4176882452,20702.2517949342,20396.3118632976,19548.8966680338,6338.41530380352,17663.5289756861,14968.7676060432,19764.8818941276,20572.8455120197,20418.2678218486,21845.0847379301,19978.2590043415,20568.5495993284,20874.4869665484,21229.0757202273,20418.2721372408,6352.25829506793,5824.04982785248,9127.800019027,20078.7932448964,19849.6964053723,20541.632436654,19845.2036552681,20675.4075495843,20873.6089765101,18703.3147361445,19761.8015938989,21107.7335677883
,68.5,20766.9380625565,22103.5274907594,22040.1624362283,19995.3891516063,19166.5082082499,19267.0920859128,19193.3724553128,20080.0685746003,19053.1582460035,20861.3174148598,21079.6417447477,21449.3309595031,20100.7688456576,22142.9117363625,22404.2490564674,19951.5586588658,20359.1244787548,19733.9661376503,19868.1333413391,20118.693083269,17784.753907814,21238.8250248551,20518.5328124342,20070.2508963335,19476.8172953583,22945.5454590542,21738.7357354891,19963.3786766135,20411.1855251884,19568.0345146391,19166.756715811,21089.17287574,20916.520466432,22557.3527534631,22475.1133923476,20883.2032662244,20444.1598922728,21844.2604001167,21839.586333254,20233.0975377454,20511.4706318054,18103.0325796599,21071.5895449213,20489.9707144011,19226.8888348583,20432.1378056071,21056.4176112933,20324.0858697116,7066.51678271665,21841.5458839849,21496.4242504327,19650.4373863482,20617.1391437577,20007.356436465,20821.7880079962,20382.9154574905,21634.6415726182,21010.7417690535,20233.0895403032,20331.7851654163,5964.90473435146,20015.6882237609,19340.5364039303,20078.5050871229,21113.6222574246,19310.2671267438,20435.5865648543,20915.4203181774,21316.5133809342,20675.359812196,20382.3419965193,19556.0800455184,6271.09329482417,17545.5815841978,14836.1142086158,19751.5168097415,20565.9656040476,20449.6542347582,21818.4353251918,19920.0149238766,20556.6811514917,20848.2371862871,21210.2762491673,20418.5574266524,6285.64915626225,5745.33559175456,9013.23748892749,20044.3249663898,19808.4636311871,20504.5513764162,19831.9951931421,20647.2170616272,20842.7951523327,18651.0445899856,19701.3923735961,21087.9576119168
,69,20709.7881991257,22010.9544757159,21978.5141096689,19968.667765574,19135.3892837937,19241.1533983817,19162.3815707037,20036.6766631684,19002.0905474695,20790.2289089108,21022.9429505866,21382.9126580062,20004.0690841732,22066.9966519289,22326.821131068,19937.5881190655,20354.4207017062,19715.0828363645,19876.2592094701,20130.8294402769,17830.0573829901,21189.8286903981,20498.4034378947,20034.9876788042,19395.5477962857,22856.6484222662,21643.1734898592,19961.9887530879,20412.9827515949,19553.4849005484,19143.4934632595,21064.621603756,20889.8707824879,22506.2346202849,22426.683544115,20842.7363404795,20345.4750930349,21765.746760093,21749.0684779922,20244.0768231196,20504.9624260747,18136.8361620883,21044.3182772744,20491.0321770407,19184.0384954809,20387.0405065244,21043.2363797759,20306.5903144181,6990.82810073638,21742.9385492003,21472.3000733765,19576.9375345753,20572.8392929778,19961.8185293493,20743.9600432606,20325.7056471227,21573.3325585207,20990.8207152192,20234.6669281188,20357.5193758001,5856.85851599152,19901.6812954544,19216.9954503621,20048.6565276548,21123.5242802164,19308.1715334618,20417.8651695724,20881.0173786383,21287.2562906938,20641.9557900313,20361.814801519,19548.5272750399,6184.72728593986,17420.9174438057,14685.6692817759,19728.5316334016,20549.4603120221,20475.4327535838,21791.8721827257,19856.9288132793,20533.8193992281,20808.0589117181,21186.161930584,20398.4755054108,6196.66564840661,5643.23784207428,8882.71929420182,20011.7628905501,19768.7556478472,20469.7733821021,19813.9852215622,20609.7969923145,20797.7542029534,18597.0954803058,19639.0242381134,21048.8873853768
,69.5,20629.8440669459,21897.6121399238,21907.8604570532,19929.7727669648,19103.019211199,19205.9901052987,19119.4227542477,19988.3714450683,18945.1705832361,20710.7747354693,20953.4562845222,21301.489088051,19894.8988320009,21978.827521445,22240.7571741215,19911.575762482,20338.7241522725,19685.8266551042,19866.2119685765,20128.3443326147,17881.894908345,21124.1153714574,20464.8515303679,19978.6950031826,19309.7002051769,22758.8361235787,21541.1465356552,19942.9736969924,20396.6748295932,19529.2020264018,19107.453022096,21022.2599682714,20848.5724608307,22445.0377594666,22363.6869759073,20784.3592997626,20243.4425572456,21675.7517936937,21643.0717449524,20231.667838918,20482.8046994108,18168.8276756385,21004.9568006275,20482.2972765748,19133.0684939546,20335.3985007531,21013.9688754011,20274.8815864435,6899.19198567143,21637.0977988009,21413.7207047582,19493.2148674896,20508.1973347378,19890.4928894789,20662.4262202633,20260.6887543717,21488.2131910412,20953.3151519352,20222.121765961,20373.5081922939,5726.94624418899,19777.5509702109,19093.2493660211,19994.9015548351,21115.4817663437,19297.0949666653,20392.8628203648,20828.4509520108,21243.6013882293,20595.0540467553,20332.5991628884,19524.1417273645,6082.47913808007,17288.0150711877,14517.372476662,19688.3244770203,20518.381430336,20488.7847388163,21761.3336229733,19785.227344679,20495.6063567542,20744.4914557058,21147.9000925945,20354.038014895,6087.88474982599,5519.69640455851,8739.34388900775,19975.037912869,19723.4652436155,20434.7303704313,19789.1050089287,20557.300885076,20734.9746296171,18532.351384275,19566.4771962704,20983.335100758
,70,20518.8007747139,21756.8656237671,21813.7315227695,19873.5094083243,19064.2081908946,19157.7611816781,19060.8801269877,19925.5323807964,18876.9429431944,20614.3287362446,20866.321179809,21195.783235482,19767.2560867898,21866.3904870562,22134.8542111505,19868.1765403864,20304.5317956539,19641.2101656212,19830.397077933,20101.0376638729,17930.4418585635,21039.3031708436,20412.8484225793,19896.7419766388,19212.9094240628,22642.832166366,21419.4207898161,19899.6672603046,20355.1520061709,19490.3910624352,19055.0703915153,20956.0269478162,20783.8791120926,22365.5595570289,22277.8628265149,20704.0849152568,20129.253845137,21565.6780508888,21512.1449785024,20188.507162732,20438.5914238258,18192.4727267753,20945.1276344323,20464.5676567003,19068.7633477366,20265.7669197745,20960.9147744056,20227.1323844973,6794.33947804481,21514.5059012324,21313.434219381,19394.7305511678,20416.2618361633,19793.1439930497,20569.8372472228,20180.1344826335,21373.4338970171,20891.2146425935,20185.9294251114,20368.476799799,5580.56968152498,19635.8161906497,18962.2520019379,19911.5372009816,21081.8218880587,19272.6905332786,20353.3176972813,20753.1746141795,21175.4428026294,20524.3215239526,20285.0357460987,19475.6972551861,5968.47875053786,17141.1888879335,14331.8688273743,19622.9011371042,20465.244843992,20480.6817022733,21718.4216888585,19699.6915802085,20432.6953640285,20651.4484006813,21086.8548816555,20282.0214091765,5965.07889750385,5379.25602571524,8587.26437899237,19924.325105898,19667.0377055858,20391.3436597792,19751.5469183318,20483.9618464731,20649.7092028326,18447.0142027967,19475.7348804948,20887.2898526336
,70.5,20377.022258634,21588.1716912477,21690.5954357088,19790.6666837604,19010.207750506,19092.7787014451,18979.8608551539,19843.302879537,18790.7272664698,20495.5636026414,20754.3416318599,21065.8077955899,19619.9755467543,21722.4826618143,22003.6676175971,19802.5858269727,20247.509966293,19573.6212586211,19766.9709819247,20042.5686954318,17956.6190769439,20928.7554776504,20335.9174155544,19787.7330527948,19097.5310573315,22500.9127894254,21272.4405306692,19826.2790664222,20285.822274611,19429.679571429,18980.8666418809,20858.4846044848,20689.3358562563,22261.2156498862,22166.36512714,20600.1189317275,19995.3677345457,21425.4754032719,21353.0044970492,20111.9025647161,20362.9366673153,18204.0224819842,20861.2597397141,20432.1303193535,18986.8299695599,20173.5625917747,20879.7626219874,20167.0992353774,6679.79928582283,21367.1329037697,21166.6594787959,19277.9998197138,20294.1177125987,19675.1565368119,20458.7295738043,20074.2862671818,21227.8053738089,20798.2404436473,20121.1532697636,20340.1184335881,5427.6968234326,19471.282002767,18818.4895101921,19796.2151421155,21015.3405111736,19226.8919053212,20291.9117573069,20649.478465161,21074.5193116038,20423.3035479472,20213.1579192528,19400.2782222214,5849.64191572594,16977.1055444094,14131.3780177733,19527.4341513172,20384.2447098152,20442.145585995,21651.9540705261,19594.6029735382,20337.8326032762,20527.8454357539,20996.4242525513,20180.075717068,5836.41525787839,5230.47706762036,8430.30038587373,19850.4688031978,19593.5761652964,20329.6379869791,19692.3236469131,20384.9555780787,20535.8561986393,18334.070638525,19359.5883182587,20763.3149099428
,71,20204.5113510315,21395.1716960083,21531.953063442,19679.3587940574,18936.650713382,19003.3004514188,18872.1562664668,19733.7213961905,18679.1731109888,20352.9122084491,20611.7175985691,20909.0695129455,19451.7996032073,21548.8482111139,21842.3718235898,19708.3982521018,20159.849637318,19477.9336109769,19675.3695817277,19950.2928267369,17940.4463635455,20789.2102745899,20232.4827746439,19656.4419872047,18960.582509532,22329.0272573032,21095.723797627,19725.8333187526,20189.713533396,19342.3382557825,18884.4294095528,20730.4282121926,20564.742502893,22123.9439543432,22024.285874763,20471.7988644607,19837.9971890437,21255.1454915861,21167.7946816969,20001.0417327541,20254.277754639,18196.7879167587,20749.6717310989,20379.3543068469,18882.7218822493,20057.7912575802,20768.219968838,20092.3968993815,6561.23152411826,21189.9373943739,20974.7914911786,19138.7934331575,20141.8231838731,19534.7311034713,20324.4635665601,19941.9184947372,21053.0183042475,20670.6425836404,20025.1285616768,20269.5069544619,5279.6396503746,19282.4674989279,18655.4196200383,19647.585872025,20914.9441131266,19156.3890025728,20202.0771328356,20518.9119976939,20942.9217224413,20291.7523088314,20116.3482004198,19299.3510122281,5733.44301101319,16793.9332504631,13919.5945319233,19401.5529453466,20275.4028819841,20370.0443937192,21551.8999402763,19466.9727803026,20209.992234453,20375.7419875255,20874.4573660982,20053.3347760541,5711.09341351932,5084.10400650664,8272.73107951105,19744.2849594258,19495.6604703308,20243.4273945646,19607.763024923,20255.1879371587,20393.3075158994,18190.6005017064,19213.2609702756,20612.295808339
,71.5,20009.2295480513,21181.0549236631,21343.8817971498,19540.7274672557,18841.3683003969,18888.7417767627,18736.5761234916,19595.7487521556,18542.2937276318,20184.0306821528,20446.4773352805,20727.2078320242,19266.1224744876,21348.0055419365,21653.0910887341,19586.1452720377,20044.0582967942,19356.852415376,19558.8396820597,19828.3306100455,17881.9026515193,20623.3618274746,20108.0804982151,19504.0799743012,18806.5086516612,22131.4322846467,20893.5987444901,19600.92517219,20068.0288498561,19229.0951729975,18767.0627376097,20576.8840598703,20411.6786416132,21956.8901636914,21855.3276424856,20322.9963290098,19654.6129823693,21057.1170981083,20958.5105779546,19857.3775711106,20116.347858937,18157.8322720085,20612.6029262106,20307.1195458374,18756.4995886897,19916.8351733661,20630.5970244408,20003.7955574279,6443.33537453121,20985.3963220245,20749.2499125148,18976.6505773994,19964.6321030971,19370.3354918582,20166.4735303316,19783.0499466389,20854.5813122872,20514.1379795849,19900.3904265948,20159.3287565638,5146.14630879677,19071.1820838815,18472.1586070602,19475.6315328147,20783.2421326323,19059.6837559808,20086.166835987,20363.4651444022,20782.4683397242,20131.4074945373,19992.6020592292,19177.8860361818,5626.1907981705,16590.6890255814,13700.2174100856,19248.1405365774,20139.7827456663,20265.2502531801,21420.8260209957,19316.194950381,20052.9297386634,20197.2893646155,20722.6054104169,19905.1448639428,5596.32675979036,4950.14780230425,8118.34834700997,19606.4900933626,19370.2963401897,20130.6138080361,19496.1750396381,20096.1411753557,20224.0691170786,18019.3374936016,19038.7245532593,20437.4377467666
,72,19798.1087964443,20952.7208424952,21129.718940633,19379.0209847007,18719.0697901116,18752.1018250538,18579.9842217029,19433.2876088469,18384.0872696362,19994.0522600137,20260.1950282046,20526.5098889274,19066.3825032243,21124.6043423456,21439.8372779876,19441.9354693099,19903.6917493095,19213.1645890495,19425.5291341667,19678.7532193889,17782.2379915448,20437.4163760274,19977.68514849,19335.6137005251,18638.0162807587,21911.5806936023,20669.2231818281,19459.0206811046,19927.5752922003,19091.6573998097,18632.9969854473,20402.1121336718,20236.1643109845,21763.4226874076,21662.8948973711,20159.4995137607,19450.9218150212,20836.3743139089,20731.9135381765,19693.5704966641,19953.4176449336,18082.2416159773,20453.5903002866,20212.1747732054,18611.3054059474,19754.0147399423,20472.1087687527,19903.3759699967,6327.9094819666,20757.4886758707,20504.9490477157,18792.9968039361,19766.1402381961,19185.9198171597,19986.0963120997,19601.4436058492,20638.3285315699,20335.1877345236,19753.1216634771,20016.9385421198,5032.93605419008,18841.217970532,18269.4194309198,19284.598893812,20626.778462154,18937.9832445033,19945.3359415888,20188.5760559589,20599.1066918542,19946.4693564274,19844.866494607,19038.8684181942,5530.94378620011,16369.8960606129,13476.499554455,19072.1846919421,19982.1696689202,20132.8743006817,21261.805044655,19144.4803433756,19869.3843795256,20000.5022228493,20547.2657441092,19740.6018720743,5496.23081554375,4835.77117369479,7970.56303510107,19440.6842240656,19221.2501332602,19990.1977709185,19359.9336864808,19914.0466005421,20035.2853834386,17825.5182275637,18841.2388734987,20248.0337728481
,72.5,19578.3497707789,20716.7340266667,20900.7518392076,19197.2318712944,18573.9116525813,18596.4950046404,18405.0780721111,19253.5217350697,18207.0035973921,19788.4540644758,20055.1336941311,20316.9926002195,18858.3632992101,20888.2244250641,21210.5639725478,19279.5418741149,19742.9410573688,19051.0729952266,19294.2895802288,19510.8795794087,17647.1793886748,20233.2066088792,19842.2365102987,19156.7873292797,18469.1872852853,21675.4055720988,20432.6985271316,19306.5586975972,19772.3256276468,18935.4567812291,18486.7615143767,20211.4375696791,20044.0344441252,21551.4402172144,21454.6373782271,19987.6910188441,19230.7149102774,20600.8941124005,20493.9392233139,19516.1775285611,19771.649708398,17975.9569076849,20279.44117904,20083.9893649372,18449.1574682871,19575.8598581377,20299.6538219636,19791.4716191553,6214.07611390691,20511.9544416972,20248.345964303,18591.8433905693,19553.8450779398,18984.8658632718,19786.0979414185,19403.2353168309,20411.6216892052,20141.5060257257,19591.1914165914,19849.5900804142,4942.30654390949,18599.7672100346,18051.1961409115,19080.6552545533,20452.5174423672,18795.7966694561,19784.3196234119,20000.2078064511,20398.075188425,19745.8788692019,19680.2150841087,18888.8022184978,5449.96117069789,16137.752011131,13250.8282725911,18880.2622357527,19808.5127631249,19980.0359643016,21077.9887441231,18957.6276099097,19666.9932303192,19792.927884792,20354.5000524272,19564.406967942,5411.43898135093,4744.24250749466,7831.13220163331,19255.3594759246,19054.3902719098,19827.5892864135,19199.9193714381,19714.9763967579,19831.0766944165,17616.7811009078,18626.4940724199,20050.0758408366
,73,19353.4870584596,20476.3022590262,20661.4095075339,19003.4048984716,18412.8382875935,18425.1307858131,18215.3809288071,19060.4892595447,18017.9599692093,19572.7771024957,19838.076991958,20100.1993171198,18643.312724067,20643.7618063833,20969.2370180921,19104.4668425591,19564.8253609572,18876.2071088289,19165.8763840364,19329.5073424046,17489.8579002129,20015.8281194065,19706.645021455,18972.5058134675,18304.8615265594,21426.5664778851,20188.7786507549,19151.2990533198,19608.031966671,18766.0359707252,18344.8602533313,20011.4824545854,19842.6064863711,21327.064943794,21232.76727835,19817.1640270176,18999.3140942851,20359.3427540627,20250.3411702416,19328.6229000395,19578.5212257179,17843.8262390438,20092.6860806456,19928.7655526249,18274.5579642243,19387.0492803879,20116.5265211926,19652.0175749971,6097.84915992942,20254.9693818333,19984.6612710498,18376.8456889546,19330.8406807404,18771.3877447175,19571.9423643246,19194.5806005725,20177.6572185197,19938.1252959937,19421.1443619904,19663.3043551952,4871.88684673833,18350.2947624598,17820.1899253027,18866.9535340626,20265.8684958413,18638.9702797529,19610.244261615,19802.3515981332,20188.5956447009,19534.7526227368,19503.7911568955,18731.3162716902,5381.08518472582,15898.5969529765,13024.5708255985,18677.3614360902,19624.4551890981,19811.4865017559,20877.6959969548,18758.1846940673,19450.8981211548,19578.6385152913,20151.1965003773,19382.0218148075,5339.93510827359,4674.25010539656,7700.09765178612,19055.2609825963,18873.0798630012,19646.5949725806,19024.0805534174,19502.267033943,19616.5023421904,17397.9840065337,18398.8960401119,19846.0814637377
,73.5,19125.6553557353,20232.4489553948,20417.9569347298,18800.2315845172,18240.6522539418,18245.4052344905,18019.4598568905,18859.3570195781,17822.6132191854,19347.836049174,19614.0774129947,19878.5141562561,18424.7669926194,20395.400292375,20722.0264089822,18922.0564924478,19377.5417770773,18694.6548475096,19041.2201679492,19142.0286550997,17320.4433956651,19791.2980139901,19569.9841700906,18783.2223763988,18146.3608752808,21171.3661784084,19942.4414591694,19004.6662981279,19438.3155690382,18588.2352585595,18207.6750870669,19804.3899416465,19635.0868546877,21095.8871566238,21004.2862373232,19652.7401841646,18760.3025379599,20113.0013918042,20001.8489691615,19135.3557678865,19377.7732356753,17690.1183702763,19899.8772892948,19754.7390354294,18093.3088783942,19190.3760811935,19925.3295314311,19491.2661186228,5973.18157606309,19992.7414853574,19717.6190857356,18152.5954172591,19100.9055657633,18548.8729231839,19351.2789885476,18977.6288614041,19938.548570981,19731.0676830101,19244.5078041387,19471.1217392982,4817.49665271683,18096.2174459715,17582.80901747,18647.7295086832,20070.4571773553,18469.9732218724,19426.7645904591,19598.2638703661,19971.5790476312,19316.0414712839,19317.5930765369,18569.8386012515,5322.00942635672,15654.1396816084,12798.7604722362,18465.9206271325,19432.568941339,19633.1043512395,20669.020846325,18550.8183139688,19226.0592244116,19359.0757149026,19942.0878163598,19194.9789591824,5278.87536336289,4621.9491999008,7576.67227939724,18848.4757996271,18682.0905114452,19452.8418504805,18837.7565142755,19281.8475395925,19395.5650226687,17173.5159807405,18165.7161159621,19640.0701542266
,74,18895.6813684503,19986.8431844493,20170.8926761439,18591.4464384718,18058.1688554274,18059.9499087625,17817.7620706262,18653.0308329843,17622.0003216332,19119.3648583024,19383.1672481297,19655.984584324,18202.7873858648,20143.9171034157,20470.5109106346,18735.0402363987,19181.1434371097,18506.7613638506,18920.8427512205,18948.0908259523,17144.0106475031,19564.3969731458,19431.8702181939,18590.5417676875,17991.0365420764,20911.6465776697,19695.4361475051,18866.9193108481,19266.9756687897,18404.0803076468,18076.869162085,19591.3910740218,19424.6058997267,20859.7641949258,20771.7371300819,19495.9684738467,18520.4357921719,19864.3055610588,19752.939308887,18940.1278421853,19169.9502964495,17525.7533114092,19701.963755454,19561.9163413458,17907.4590692963,18991.8150735223,19730.2105342694,19312.6592445228,5833.88674591874,19728.3619018433,19447.9991624514,17921.6805205736,18865.0945512127,18322.0773082478,19127.2463482707,18755.1297404839,19696.9340376612,19520.9268540921,19065.6384084014,19276.5034118719,4774.61362530098,17840.5158589018,17343.1275401104,18422.1665176679,19868.6457907873,18292.5032554019,19235.3525143178,19388.1881931205,19749.8123413301,19091.5649893059,19125.1147719262,18416.5293751105,5270.08690485056,15409.4807292958,12574.3026910265,18246.6274621589,19236.3062053245,19448.0983277631,20453.2490234086,18338.5472053516,18993.7835825192,19135.9045322716,19727.1078436584,19003.4097393716,5225.47965241773,4582.71218881936,7459.76002277674,18637.7214056067,18488.8000956817,19250.0093584219,18644.6185007698,19058.2167679593,19172.0872370569,16944.2956283401,17928.3788074651,19435.1403135963
,74.5,18663.7106937866,19741.6505710023,19924.4061704899,18377.7335740063,17871.6165205142,17870.1628553603,17612.6823490819,18442.7237492488,17417.9668795837,18886.7948425426,19148.1103313812,19432.2061159322,17978.9500398904,19892.9815508174,20217.6639554158,18543.7949035691,18978.3300444482,18314.6036963921,18800.5577372433,18749.9398452846,16963.2577113563,19332.4113014086,19268.4530150576,18397.4472552523,17837.17701872,20650.3611057379,19449.560700382,18736.1345063491,19095.0406128401,18217.2091098208,17950.1515774654,19375.6632006048,19211.1048971356,20622.6916721844,20538.641339736,19345.4680898295,18276.6060774245,19616.8011263798,19502.3428547656,18740.1074150915,18956.8235300006,17356.7897067846,19500.208276326,19356.6053823929,17716.8690319357,18790.8460837454,19529.259543575,19120.6695392357,5677.02928970619,19463.4936006592,19178.4514449266,17686.8070637717,18625.2319263129,18091.403252872,18899.3927708918,18530.1844565945,19452.4850002824,19308.9604190658,18883.4422592211,19079.0957097953,4739.96659336255,17585.6531219015,17101.3820940669,18192.3470410075,19660.2085234629,18109.3828736606,19037.991490065,19174.1433483023,19523.3308522295,18865.5507294144,18927.4159001897,18271.3255691589,5225.34070070188,15165.4288558484,12352.3186609739,18022.2923343209,19036.5310274029,19256.4788711582,20230.8384829562,18123.0526508202,18757.3980094554,18910.234477801,19507.905697548,18809.2512162571,5178.53363267675,4552.63110854401,7348.18620347368,18424.444377587,18292.6793687362,19041.7020389146,18446.0674217842,18830.5031835751,18943.4563032466,16711.895875377,17686.7058358682,19231.2299237361
,75,18429.8250956246,19495.4918342538,19676.2572942917,18162.2724523411,17681.4555150254,17678.9391052268,17407.2278833789,18227.2729122693,17212.5073543787,18651.1244045918,18910.4378002268,19205.814018042,17752.1056011246,19641.6194583884,19963.1134808811,18348.9178346202,18771.2112876342,18120.0581743321,18654.2980953895,18548.5897996537,16779.2238509609,19098.5736209814,19085.0784957802,18202.4664607478,17665.0057370349,20389.2871207095,19204.2617815501,18608.9241165964,18925.7556949589,18028.6574036928,17824.3569791299,19157.4592476103,18996.0981060371,20383.6568828535,20306.0088837955,19196.8924966613,18033.4591319721,19369.0320523782,19252.1516121416,18536.9021555471,18739.2958222261,17183.5775293473,19295.210910395,19148.754725176,17523.9106884646,18587.3049227823,19323.8868168398,18916.3729146081,5503.20630550368,19199.2268221647,18910.1690479019,17449.3791256322,18382.3109371552,17857.7496612445,18671.2476387194,18300.6639049157,19205.0087110812,19093.6013530847,18697.6825618647,18881.3149415989,4711.23932134326,17330.2357444421,16860.4711807718,17958.3500409086,19447.2748969841,17921.466552549,18835.2912730218,18955.5047026426,19295.1319195242,18637.0835106651,18724.2649114477,18133.4517140614,5185.45067780345,14922.6153962488,12133.1926074041,17793.2346267215,18833.8416332733,19059.6633757082,20005.0912416506,17901.4247397561,18516.8393505857,18680.4436682992,19286.854842478,18612.6584852164,5137.18537790661,4528.75117759758,7240.51129842345,18206.1880110967,18092.1083003463,18829.0703918335,18245.977459201,18599.5855599234,18711.6602132246,16474.3480520848,17441.0695006732,19027.0695478543
,75.5,18194.5958115082,19249.9159256925,19427.0483580439,17945.3604276524,17489.0957179608,17487.973285838,17203.0380008679,18009.0505737101,17004.006707009,18414.3347088731,18669.6058375169,18976.5016432006,17526.3336171603,19391.361940248,19708.0260108075,18152.2120475571,18563.0870432851,17922.3326092713,18486.0343649301,18345.3524478683,16591.0650874978,18866.3027932473,18883.2862736201,18004.7494616907,17477.067222106,20130.5954106985,18960.7917382345,18481.0467943677,18759.5197420009,17837.9876434781,17676.4576808076,18937.2849744318,18777.3924232434,20143.282395345,20075.8544677242,19039.2329887189,17791.1494159387,19119.8880700713,19002.510687435,18331.0290548437,18518.9313116527,17006.5714654583,19089.5584322371,18937.9371276966,17328.277090223,18381.6304953809,19115.0781043977,18711.5354554814,5319.8394130844,18936.9758573732,18643.4437081382,17210.1856205531,18138.1616726914,17623.1264808943,18442.9659778187,18068.6998978529,18956.6538241017,18875.4035380001,18506.4422093392,18680.8277090654,4687.27080837178,17075.7960284321,16622.3571007882,17722.1566393188,19231.2305564139,17728.6185743253,18629.1147070905,18734.773661372,19062.5391639922,18406.4758543318,18517.9039215991,18002.477774865,5150.47558967147,14681.4698981074,11918.5275686933,17559.7572944261,18628.3327040237,18860.8857302744,19775.1857131403,17677.8548383873,18272.805083306,18447.1361200278,19063.7600363717,18414.3421395373,5100.129229414,4509.35717690069,7136.72620409876,17986.2972824755,17889.7147628331,18613.2947262362,18044.8757074079,18365.7363827934,18478.0424290191,16232.8720680204,17194.2267512407,18822.0705178371
,76,17958.3831765976,19004.6492438894,19178.3542043565,17728.4856974861,17294.0815102804,17296.1725803174,16997.9747578861,17788.2303166301,16794.0023664149,18179.3857890426,18427.6209135463,18745.9480439322,17301.1883861482,19141.4911272623,19452.7000134119,17952.8605098255,18350.4361350191,17722.6873175646,18298.6631518889,18138.2625469352,16402.468455455,18632.5215476953,18667.9498667805,17806.2979586604,17274.437635379,19873.6053463125,18717.9669633786,18330.9539424366,18607.3930003878,17645.817358328,17508.9887497187,18716.6475207152,18556.0625609199,19902.6928427843,19846.3379718927,18865.8836308785,17550.9297789461,18871.738037129,18754.6499946193,18123.9222837867,18296.2208613617,16828.5496806465,18880.100606035,18723.0663002598,17128.4211510845,18173.9623149341,18905.0515718324,18505.6738596161,5137.31588343955,18676.2721736269,18379.6097697641,16970.0512176528,17891.5072543156,17387.6478656382,18211.4094106939,17836.1669182131,18706.6433062213,18654.7852431954,18311.5746890902,18478.5907625329,4667.00637053378,16822.6356663108,16385.8959093439,17483.6197343301,19012.3761501198,17532.5097682354,18421.1800766831,18509.6850921227,18827.7730670216,18173.5105955176,18308.1644899554,17876.1367526781,5119.58974254474,14443.2736290983,11707.4557908608,17322.3047914331,18420.1819506149,18660.1093130913,19540.8499230999,17452.6288840107,18025.5837528196,18210.9539606552,18837.8167712418,18212.7566241162,5065.79784056902,4493.52901361822,7036.39293058354,17766.7311918277,17685.9800631863,18394.8206864569,17838.6144187294,18131.5576653188,18242.3755271702,15987.6465209664,16944.4240418544,18625.4689188918
,76.5,17720.7233251502,18761.5464759502,18929.1715289777,17511.2524702113,17100.4512552128,17103.8650376442,16793.1127479737,17567.2572872046,16584.2873125908,17946.7697429191,18184.1412447169,18514.422059373,17077.7664145354,18894.3566880808,19198.298717294,17751.429261275,18136.9083597191,17522.3442249766,18093.771687553,17930.3559857414,16210.4677521484,18396.3645227316,18439.053520651,17606.3679481568,17060.8937422715,19618.9985576552,18476.0189816266,18160.9138767475,18465.6601761,17452.3345251968,17323.0503092993,18495.3026910028,18332.705514902,19661.5222983589,19618.252978139,18676.5474232454,17309.8530217711,18625.6130040777,18506.602449723,17915.5185245816,18071.6262674903,16647.2382869335,18667.6179454595,18507.5089056288,16926.1857003123,17963.8515898196,18692.6108418869,18299.3399097547,4968.55377377786,18416.6104317663,18119.206994719,16729.580993485,17645.1119390342,17150.6432042168,17976.79034139,17602.7911062586,18454.6203551097,18432.7608312605,18112.2057276121,18274.6627688659,4649.88590137076,16570.2612986912,16150.5739160691,17242.4945821682,18790.766974632,17334.2124289408,18211.0791332726,18283.4971154848,18591.6249946181,17939.5006687214,18097.8115434468,17730.8387037395,5091.9510514482,14206.5373154274,11499.5940118788,17081.7996287721,18206.816866025,18456.6592012261,19302.5907851712,17225.4054745585,17773.8010521973,17973.1340942499,18611.6735460558,18011.2280521876,5032.20670363044,4480.244271829,6939.03223620645,17545.7562148023,17477.5691120082,18175.9962144953,17629.694674589,17893.800026737,18004.2010588606,15740.3909204884,16692.1871162089,18437.5750110483
,77,17483.5077338751,18519.5186797471,18678.5226530547,17295.1118919634,16907.8166945982,16911.0773893523,16589.3983894591,17345.8991310299,16375.0226426065,17716.6200107179,17940.0948260099,18280.4858081425,16857.4627915475,18648.7558555691,18945.6974858908,17546.8570481599,17921.7220769843,17320.8509477313,17873.4499816804,17721.9534503573,16016.7015052713,18161.8283891646,18211.0866836419,17402.7869656485,16837.4051276148,19366.3956321225,18235.581430879,17972.259030052,18332.0045695284,17257.2633430173,17121.9321010297,18273.2334154543,18106.947510507,19419.6116326657,19390.7314734915,18473.5770544877,17071.8718276444,18380.831371542,18261.4396078501,17706.6037147286,17847.0610653618,16464.3907045826,18453.0872616488,18290.4029743866,16722.4308660816,17752.8859425506,18481.5638156183,18090.5127328722,4824.92502935565,18158.617954798,17861.6154241014,16489.8455799018,17400.2262335347,16913.8765794767,17743.8882301561,17368.3648720503,18203.4176160475,18206.6277635272,17910.6842785562,18068.7870916948,4634.87762873553,16318.2686623818,15918.6178029009,16998.706539285,18567.2724319653,17134.5489115111,17999.483132464,18055.277934308,18354.4063848555,17702.0084340905,17886.4969726292,17567.2291776507,5064.22251132453,13972.7992423854,11295.3191686995,16837.6449319419,17989.152444946,18251.3964161949,19062.6166927633,16996.3671439992,17517.5722573867,17733.6594493865,18384.8457235517,17808.4708929894,4997.00569318952,4468.80653199555,6844.04441548417,17323.5199828369,17267.5734774045,17957.0775607472,17419.3575783475,17655.1420144122,17765.6493120521,15492.1994448366,16440.89481783,18255.9809525616
,77.5,17246.5509415429,18280.2340924137,18429.7739527273,17078.307850752,16714.7665414221,16716.5986100473,16384.3451141065,17126.9835787434,16166.8179020908,17490.3918142768,17697.9613546639,18044.5968172602,16640.2873331076,18405.0981566083,18695.5608187315,17340.9478104054,17706.492228603,17115.9549495831,17652.0057487495,17512.8309865023,15821.6014823295,17928.3709400005,17983.5272133473,17199.5837453164,16616.8653366596,19115.2037026415,17995.7532663917,17768.111317535,18203.2623659526,17059.1303846819,16908.5894099011,18051.4270853524,17879.3274131083,19177.0990698839,19160.4286193542,18257.9201403736,16834.9598963994,18137.9008538982,18017.8100507941,17496.0357102222,17621.8191626863,16280.6886234365,18236.6515791961,18071.6035691678,16518.8609184946,17542.3225422236,18270.6514428599,17882.362066701,4713.29175916139,17902.8158190507,17605.2841633223,16250.8364194369,17155.4064547177,16678.2912336979,17510.9380737788,17136.3302099252,17952.4401885769,17979.0052479958,17707.339774142,17860.0754215086,4621.31616994141,16068.6615417573,15688.8486949393,16753.4020724485,18341.1930015488,16933.3525462729,17785.9633720184,17826.9054791784,18114.8938639872,17461.7244280859,17674.9218382072,17385.5424052771,5036.71842014226,13741.4863356691,11094.6867327101,16590.1586136596,17768.7853581367,18044.3707358792,18820.0930873152,16768.3111744167,17257.690109516,17494.2824517042,18156.3872812875,17606.2124957798,4959.15002060919,4458.52740842722,6752.1677465308,17102.0258787352,17057.3249072689,17737.1329281569,17208.7791652602,17415.8419169505,17526.1738046633,15246.1119430177,16191.3165705335,18081.1703111741
,78,17009.4665716148,18041.5568569923,18183.6225068883,16861.0316863743,16522.474844995,16520.3054676999,16178.6057347268,16909.3099416842,15960.6655157614,17266.4033227704,17459.4408145299,17811.5323496934,16424.8918867174,18164.1520081094,18448.093501181,17131.6010217949,17488.8950319377,16909.3526999077,17429.9965619833,17301.0997693138,15625.4990643345,17691.5963718718,17756.9906444132,16997.5500772971,16396.7595284981,18865.9507637783,17755.5301781318,17550.7650013971,18075.4108005665,16859.5674557555,16695.8541420185,17828.6402260269,17652.5240741155,18934.7375629652,18928.1265030597,18036.0904007576,16600.9381095043,17897.4620804431,17775.1782551902,17285.15508375,17394.1340472503,16096.0446114267,18017.5955500428,17851.6446482507,16315.1161454103,17333.4444128816,18062.1564820521,17674.3632959555,4633.2210708593,17648.9070097,17352.8407113814,16012.8206855151,16910.6726301263,16442.7240146483,17279.1196611727,16906.6636090708,17701.0149258155,17751.2486197486,17502.640740229,17650.6198047052,4608.58977449524,15821.4946496129,15461.0412594511,16506.096676024,18113.0717947532,16730.8907761146,17569.3131940784,17596.6187807493,17873.0711530457,17219.0989994274,17461.7653889664,17187.8507185336,5008.82637782269,13512.610525787,10896.1809181564,16339.2019691895,17546.2822643938,17834.8850096898,18576.913807086,16539.5350307389,16995.6730071768,17254.50224325,17926.20421627,17404.1548331639,4917.98471671961,4448.74063299372,6662.80831265128,16881.3430667736,16845.0663147114,17516.8514572535,16995.2200633977,17176.0288489089,17286.3126368296,15001.9142664936,15941.82824233,17911.444144315
,78.5,16774.4988761842,17803.9924339879,17937.7417295572,16643.618392702,16330.448327158,16321.26047421,15973.263678524,16694.6652871159,15754.2978594544,17042.50845752,17224.049363897,17581.0443341137,16210.8377224637,17925.1976290049,18202.4308791292,16919.7102668864,17271.3405757456,16700.5999590512,17206.417439359,17087.5303911766,15426.7509439966,17455.4245432875,17531.0430046487,16797.1391600285,16178.8059953305,18618.6317318404,17517.4152264269,17332.9900521989,17924.351068497,16657.3493632398,16482.6736344547,17604.4507762552,17424.57961216,18693.1220614364,18696.7985275005,17813.6674405368,16370.0629863936,17659.197371072,17533.8080212522,17071.2178834747,17163.3466699572,15908.7179819938,17796.098348708,17630.3064522102,16112.2721737286,17125.2624695309,17852.6032827832,17466.6509424309,4580.7566561435,17396.2143551864,17102.3747437218,15775.1794465714,16668.200894209,16207.0769042516,17050.7068021973,16677.4891771083,17452.6639867931,17520.4860709201,17296.9006436903,17439.8212965578,4596.65367915216,15576.8428271748,15235.7849180578,16254.9608450722,17883.8260350602,16527.2296587569,17350.6894677437,17366.4413800279,17629.1937933248,16976.2701227962,17249.0950300919,16975.6702235263,4980.30443857746,13287.4402524835,10701.6828432618,16083.9378827324,17321.1710895563,17622.1223820798,18333.5282624775,16309.5007728321,16729.2659399384,17013.2841958774,17693.8760947116,17204.5937345835,4874.395113083,4439.21893380184,6575.08219864543,16656.1766406479,16631.1885068998,17295.424846368,16782.1814100866,16933.6183537696,17044.753898427,14759.3337478268,15693.0751497634,17723.9617476156
,79,16540.5432336967,17566.0615301075,17694.711848198,16423.9003889223,16135.8512947472,16121.9901369274,15768.6973018398,16480.0494434083,15547.7223253987,16815.5787780175,16991.1392834229,17351.0575285725,15998.425737924,17687.1266070014,17958.4944209319,16705.2748635347,17052.4789923022,16488.2124506628,16981.4757425588,16871.4116097417,15228.230468169,17217.0451542759,17304.5506143193,16599.936133355,15962.3868383011,18373.1094606255,17281.939872231,17113.4288903683,17752.8835211961,16452.6303954603,16269.6129003739,17380.6387403055,17197.281957057,18452.7536212084,18466.5070384682,17592.5487054827,16142.1304205152,17422.3481787556,17295.5394080746,16853.2997532723,16930.3867232453,15720.6751655384,17574.4519146978,17408.6912852557,15909.2222770639,16917.1095680879,17641.638470678,17259.849725113,4548.4869837064,17145.6350445274,16852.8356002451,15538.0522004226,16425.1243979125,15972.2626331695,16824.7044786462,16450.181899067,17206.0954219881,17286.7510188171,17089.5966606206,17226.5755026039,4584.86696507816,15335.0462645058,15012.4146794613,16000.1587152652,17653.4325417886,16322.5982792087,17130.630602868,17134.4940743643,17381.7833945148,16730.8640051581,17034.346126422,16761.4427359686,4951.51116301121,13065.2586309391,10511.5433439495,15823.2161324387,17096.0316517509,17406.7725634743,18091.128650953,16078.6574384429,16461.0933729031,16770.1179031659,17459.4207359833,17016.8094574115,4830.90558527749,4429.80924040873,6489.39882974953,16429.3771512756,16417.9170033147,17070.596631413,16568.4205339604,16691.0413350555,16800.5963020571,14516.6810286001,15444.7680165815,17517.2665655421
,79.5,16305.7394710786,17328.7964525922,17455.0319574964,16200.5398403491,15937.5420063246,15921.3971300598,15562.3624516905,16265.2224487686,15339.4195839398,16589.7780190424,16759.0102971434,17124.2141176996,15785.4111857935,17450.6152438977,17715.5255166621,16488.4430107884,16831.1145787719,16271.7469485755,16754.9702740331,16652.3565829559,15028.0766195467,16973.0440449426,17077.7228638017,16405.2132133631,15749.0196103297,18129.1322087704,17047.610686906,16891.4193671912,17561.3490849457,16244.1915916522,16056.1451281096,17155.3450130068,16970.1720232699,18213.3123212491,18236.1664344718,17371.0873774262,15916.117359397,17186.4245380293,17058.1900713352,16631.2907212419,16691.4570968168,15529.3800179672,17351.6654430018,17185.0712708404,15706.6677187814,16708.6358227669,17428.5743827095,17053.560777148,4528.13626923057,16896.9208203116,16604.9408336761,15300.3597222468,16180.355013824,15736.9097085072,16598.6718906065,16223.5485299406,16959.3367925404,17052.2650582196,16879.8120978854,17011.7385294739,4573.43717514316,15095.9050520454,14790.9953335674,15740.590167908,17420.9115640646,16114.4768578931,16908.5960699926,16901.4217340047,17131.5444607242,16483.3758666264,16818.3046497529,16546.2820735614,4923.73407812139,12845.6474955802,10325.1581745876,15555.1251135799,16870.2710839309,17189.4238692651,17846.6062025244,15847.1538544006,16188.9379571285,16524.9200780318,17223.5626547912,16841.6003834389,4790.06411474285,4420.24005701164,6406.05748951765,16201.3891764903,16203.3105381681,16842.4262242589,16353.1907460337,16445.2680218801,16554.9536250835,14272.1525242731,15193.381927849,17291.6946019456
,80,16070.032948123,17091.5384658859,17217.7040351714,15972.516196476,15737.1650892113,15719.0003139257,15355.2569928037,16046.4697717466,15128.3312765331,16363.1792512918,16525.7428347198,16899.4814944434,15573.7407086853,17215.5999932055,17473.6106931979,16266.4997040894,16603.7511935734,16052.7086800646,16526.9878730341,16428.6559411138,14826.0364883218,16723.4181063063,16847.8458227601,16211.9919379352,15535.8451478596,17886.2204221802,16815.3482175646,16665.9843185556,17351.0267727277,16033.4100238892,15841.4288517688,16928.2248416709,16742.4084300631,17975.5006101633,18009.3224156064,17151.9076828531,15692.015380266,16952.0395353579,16821.9919386175,16406.0725766177,16445.6621605011,15334.8164169793,17127.2712140285,16961.1331538666,15501.777375155,16500.2593944498,17214.5388913647,16846.0291434966,4513.61923317592,16650.0433529624,16359.7037871642,15061.9271616603,15935.848522681,15501.3201533618,16372.5984895881,15995.9789436712,16713.1158658983,16814.1172463395,16667.2336528776,16795.0408656264,4562.1152925966,14858.2334667701,14570.9720473684,15471.1874958858,17186.5349451055,15904.5174549917,16685.1350562466,16666.01118356,16878.2281306224,16233.1509763672,16601.6369741311,16331.4574382502,4896.48546996103,12628.6834119115,10143.1820898333,15277.7358344994,16641.6346318991,16969.3226566412,17600.8470605412,15613.6352304506,15911.4805634388,16275.545820999,16985.5439909084,16675.1428668093,4752.72420673287,4410.7424848186,6324.5379212263,15970.4112816444,15986.0286065765,16611.1164522776,16133.4000015,16194.9676716966,16305.503104574,14023.6744683455,14938.0782744078,17047.096799074
,80.5,15834.2691585795,16855.1235780489,16979.5705188289,15735.843031536,15531.7120073845,15513.5752190787,15145.2818635161,15823.4251219245,14912.1003371088,16135.5400410426,16289.1177593365,16674.870413862,15362.9716626847,16980.3366807771,17232.796531985,16039.3934202158,16370.4704636817,15827.9672362981,16294.7809876904,16202.5271816636,14622.2303384226,16470.6550608232,16613.4681265671,16026.339460961,15324.822946086,17644.8948240414,16586.2320670658,16435.8136313577,17123.8890913233,15817.7810027938,15624.1654482367,16699.594110065,16511.8093585161,17738.4178405886,17784.805318831,16933.3109613056,15467.551046046,16717.1074490344,16588.2319721899,16174.1178732302,16190.9785914468,15136.2748707018,16900.1702786663,16734.7431320564,15296.6241708235,16289.5516598176,16996.4204390508,16638.3732341373,4501.93711364463,16403.9348280074,16114.4633174598,14822.6293240014,15690.0823170515,15264.7242599382,16146.4127105184,15765.6664917135,16466.1572394015,16570.5581659165,16452.7297477513,16573.9743460337,4551.02211342054,14621.7794544751,14352.668011427,15187.1946578157,16946.7851174783,15692.8728764598,16459.1924934722,16427.3332280424,16621.7208340774,15978.7008345294,16382.7314756724,16116.0556497759,4869.7628273615,12414.3638200282,9965.48675961288,14988.9358291296,16409.6383359062,16745.5872687489,17352.170801053,15378.4377399126,15627.1325917252,16020.7335161455,16745.0199465846,16516.3948707184,4721.57416709673,4401.84265051855,6244.56560993549,15734.1254847121,15766.337134394,16377.815491519,15910.3065555391,15939.8954655529,16049.0869812884,13770.3043554686,14679.1560832429,16785.1925242357
,81,15596.1928156589,16620.5749587176,16743.8329032524,15488.263339426,15321.5533545451,15305.4013828678,14929.2169277259,15593.3367591675,14690.9301575726,15907.9644569412,16049.2458231339,16448.5020384324,15154.117802416,16746.3496134545,16993.3795831878,15805.8367539628,16131.2336178215,15595.5040866438,16057.6806116514,15974.0279194384,14416.2568065463,16211.0521338772,16374.9334203477,15845.3642187974,15115.1368982894,17404.6618376129,16359.0761057163,16197.6322136868,16891.4818395918,15597.7252732237,15405.8520800091,16469.4133753023,16281.0449328488,17500.14105379,17560.5952442089,16714.3831409792,15242.3354140472,16483.067323489,16356.2191761373,15936.3025513876,15926.1876419508,14935.756442364,16673.3849894402,16506.7827496916,15089.1773748506,16079.044654986,16778.6550106707,16430.7916213079,4490.82640403412,16160.32318313,15870.7895817113,14582.9706474845,15441.8274881382,15028.1643055142,15917.6195381018,15533.9220448316,16213.5215715693,16323.3654900861,16235.3553686946,16348.6576666075,4539.69388899777,14386.6098410134,14135.3535923528,14887.1458817806,16700.9996258832,15477.6911650349,16228.7127501922,16185.0438458931,16358.8439807121,15718.1571359026,16161.4466685543,15900.0176078431,4843.46807420074,12200.7689793882,9790.74978963258,14687.5957278184,16175.0945001145,16518.1648121184,17099.8272996103,15141.836476198,15337.357258975,15761.0135267823,16503.0563845316,16361.6284895471,4697.27237586724,4392.95952044107,6167.07565920353,15495.4735057346,15545.5283251401,16142.4375788565,15682.8835366564,15675.9732950694,15784.1537777428,13511.3842780919,14414.7094949122,16518.4936783387
,81.5,15358.1907664829,16387.4824131315,16508.5412303206,15230.0292094357,15107.728846533,15092.1218265748,14705.0379614902,15353.8050102412,14460.2967921976,15682.668951113,15805.3498502399,16222.036970154,14946.5808801182,16513.0325820831,16755.1729411536,15561.6639924003,15882.2716718299,15354.9150145403,15816.5939012704,15740.9091884189,14205.8207046262,15947.517181514,16134.4498483357,15667.6831173408,14906.8369575583,17165.3436088501,16132.0908188832,15950.8940523759,16652.7959124932,15372.21348158,15186.6721220473,16235.9262293764,16045.4295062277,17261.0221185451,17334.2352673877,16492.5923074134,15018.4082399221,16249.6847675471,16124.6399951036,15691.3394052721,15648.0071869682,14732.3459900449,16444.5992832909,16275.2947115257,14879.5980930584,15868.0808095882,16561.1330596483,16222.4965206386,4479.54179488195,15917.1298402974,15629.4039609308,14343.0691391613,15192.439010389,14790.6943576467,15686.9836243843,15299.2126308105,15955.2515174336,16070.225367876,16015.152588989,16119.0988136445,4528.50823865378,14152.3512009548,13920.5484325161,14566.1182030306,16448.9991060447,15257.6138474314,15994.1778532894,15939.2256333019,16088.8437938933,15453.8756389155,15937.6101645916,15682.6120215823,4817.16232591436,11990.2129331026,9618.17314483224,14371.9786146767,15936.1017437441,16286.6312138551,16843.3923451214,14904.0739764498,15039.5592576453,15494.5303744272,16258.9679247076,16186.0833733962,4678.21768745372,4384.41217519287,6091.3354728776,15251.4842625072,15321.3465932988,15903.8561057888,15450.1594289301,15398.0104652113,15509.2356798212,13248.6285668573,14146.1343286857,16248.9581851794
,82,15120.5332854024,16155.3414171996,16274.3592987367,14959.5947624733,14891.6155410407,14874.7758738276,14466.6767101097,15099.8718797313,14216.460336005,15454.8798552005,15558.364208193,15995.6666718115,14742.5483604721,16280.0878837768,16518.429449461,15305.9005872843,15621.7698892482,15104.8876570007,15572.4860504705,15505.3367924343,13992.2003605161,15682.5046286047,15890.6524493706,15494.0182324735,14699.6104668102,16928.1989054445,15908.0796849101,15693.6756732917,16407.31164769,15141.5244861729,14965.2907811448,16000.2256228754,15806.8228922691,17020.6321323919,17107.2353404665,16268.7186724748,14796.9977089303,16017.4192767589,15894.3844001039,15437.8293115934,15355.8749938592,14527.4752986661,16213.1457479328,16041.9929455367,14666.9235292181,15656.0867408198,16344.1971160742,16014.0096080654,4468.71645221691,15674.8922163833,15390.0390106245,14101.8438743662,14942.4998576083,14553.6959259202,15453.6092200882,15060.6456404833,15691.0139078268,15811.7910596099,15791.5447259256,15884.5833728863,4517.35566709135,13919.4166467148,13707.2159529877,14218.5893750945,16190.5902565304,15034.2077188644,15756.3455715011,15688.3880598875,15812.3702583812,15185.6965004972,15712.7830601198,15461.7740967082,4791.17157606271,11781.1631418659,9447.99029363753,14039.3623243754,15692.1947602248,16049.5639146708,16585.9631322074,14665.6011228255,14737.093287571,15220.9000297144,16010.7169885267,15988.4053042286,4663.33726626739,4376.4992698875,6017.27856877329,15000.7992195245,15094.7176408152,15663.1007562573,15211.0637152286,15107.2171963044,15219.696511184,12983.2034881523,13874.7519841917,15978.1528852842
,82.5,14883.5667582276,15924.7136732431,16038.1053728587,14676.6454446017,14671.7052844563,14652.9766398845,14210.8032089747,14832.4934997594,13955.177955609,15226.0146891811,15308.626535456,15770.7134008917,14540.6648032915,16047.8094072295,16282.7826535307,15038.0158473623,15350.4953258613,14842.7101044468,15323.3495640961,15266.8326532619,13774.5734634973,15414.5196060864,15645.5028944146,15318.604621398,14494.9666340939,16693.639132754,15685.8315049683,15425.3960476267,16153.908621803,14902.9725892274,14742.4737841392,15761.4853517453,15565.0776328412,16777.579356256,16877.735739527,16040.6982000931,14578.2161870457,15786.4220775223,15665.8165241974,15174.2721957324,15050.4369772284,14319.5982948331,15978.7137625993,15803.4078697616,14451.5893015752,15441.5727454032,16126.6235612648,15803.9344213392,4458.41519592497,15432.8716711837,15152.7161324914,13858.4069991821,14689.0427785058,14314.5160440698,15216.4517807061,14817.5982930927,15417.2132153561,15549.0371022286,15564.4687909981,15644.0677319686,4506.83034093647,13687.4686790246,13495.4372775228,13845.6917146331,15923.6215626114,14804.594209509,15514.6535160572,15432.0999023405,15528.2291013697,14913.5361355897,15485.132901242,15237.9341806763,4765.05759717765,11573.7460792943,9279.70455701843,13688.9062627415,15443.8029127758,15806.8698385885,16326.2036509042,14426.8342368535,14432.4156073618,14939.7679880147,15759.5625546697,15771.3628293282,4651.7423678242,4368.71854664289,5944.17939254511,14743.5083837497,14865.4493313,15418.2361708345,14966.9085342599,14803.1059581918,14917.8551460655,12717.1239242155,13601.6600388509,15706.3909998456
,83,14645.0523629134,15695.5897964102,15804.5934010236,14385.1199365315,14449.1653268945,14426.3688296799,13936.9177755818,14549.3996120335,13676.6047605716,14996.6648093292,15057.6367588096,15547.8946699962,14340.5923627972,15816.9837567871,16048.1401512902,14756.9551711679,15067.7868004205,14569.9861573073,15069.9441975841,15024.2286198113,13552.5438327553,15143.4533862384,15399.1658413385,15124.0037568508,14291.8333540762,16459.9255632316,15464.8742053249,15146.4200868589,15891.8743636888,14657.842282205,14518.5140211302,15519.9095410174,15320.7497343111,16532.1329707346,16647.0374677887,15810.6742269847,14363.8797133082,15559.350011226,15437.4152638347,14902.254249133,14733.5157032044,14109.5804143889,15742.7911195057,15562.9037060753,14231.6825011724,15225.1130979684,15908.7128296759,15591.0642485608,4448.30493209318,15193.2501108165,14916.9247013644,13611.5071617889,14433.3394590337,14073.3399990357,14971.8173832059,14569.586270312,15131.3801720622,15281.9136314584,15332.2792253389,15400.1991064321,4496.59320605859,13457.2614965619,13284.9008186357,13449.9059901293,15650.2513687132,14567.6353714912,15270.9633272497,15173.9510407241,15237.5637698071,14637.6098449116,15255.5270005509,15010.0638923926,4738.61885397827,11367.976965032,9113.8269708273,13320.9540768495,15189.5491873077,15557.698156549,16064.6498139412,14186.5748744223,14126.2701497348,14651.3949154813,15503.9094327836,15532.8600407299,4641.39295253051,4360.76587349547,5871.51494990824,14480.3391766153,14633.6172974974,15169.0998018416,14718.8139740336,14485.9646729212,14606.6651934814,12452.3565357798,13327.3161480466,15434.0979072063
,83.5,14406.7434851777,15466.3765659441,15570.0361862082,14084.9538456351,14224.0319697113,14195.9582899339,13643.160264562,14245.3126650573,13374.4155298276,14767.9049416258,14804.3597661345,15332.5205764819,14142.7193352151,15585.9524591469,15814.6513162963,14461.0615201368,14770.278767468,14284.9611733836,14812.6306700733,14775.4833447183,13325.7118058676,14866.2888003795,15146.6706444817,14908.8245558586,14089.3954780963,16227.1862518972,15245.5730856042,14855.1823915465,15620.6562094701,14404.4494555858,14291.333538219,15272.8020386041,15068.3627608309,16283.6329008952,16411.7949479565,15577.7599832003,14152.0348834317,15333.2155640865,15209.1853513844,14619.4298810617,14404.7398219139,13894.7945901846,15501.5546708617,15318.3675563331,14007.9161300788,15004.4420319604,15686.3321902151,15374.4735253089,4438.56122931281,14953.5906760768,14681.7030399699,13358.6943181983,14172.8876825425,13827.1211730967,14717.9143770742,14312.6891073243,14832.5546065636,15008.5655860109,15095.0219170327,15150.6161841481,4486.8378879438,13227.9510361878,13075.5825222051,13028.8132452678,15367.107279644,14324.3781797736,15023.7179102204,14912.0500975133,14942.2515217361,14354.7546995256,15019.9364236962,14775.9620568959,4712.28761248449,11164.3083205232,8950.69791203715,12930.9383550787,14925.4357836011,15299.0353103008,15800.8512192134,13943.7768517819,13816.6227063372,14351.7526980872,15240.5136458819,15273.7749524847,4630.76812617038,4353.18036074307,5797.19356279335,14209.6507861454,14396.9119753308,14914.5142265308,14465.8972160509,14159.7096106493,14287.1652508347,12189.0411670304,13052.5154696002,15159.7470630362
,84,14165.8272371862,15237.6984033488,15336.1641803493,13776.9633053093,13994.5768916275,13960.6688797155,13319.332294341,13913.6007247018,13042.3222099162,14538.639913399,14551.0711876809,15134.1105736607,13947.1815130752,15355.3223202175,15582.1395478817,14152.1668292432,14459.4027401143,13986.9540486646,14544.9450846079,14518.1841276657,13093.4174233719,14576.9000741943,14885.5759691679,14668.7529851789,13887.2561608155,15995.2781814842,15027.6594358622,14546.8580648177,15335.207244696,14140.398352204,14055.2746030668,15014.7614184315,14806.6222011651,16030.4451749798,16172.124727576,15341.8825982337,13940.8925372684,15107.6148995618,14980.7637507314,14325.2527534192,14062.8487620181,13675.0738038788,15251.8751650439,15065.4628210543,13776.7085216193,14777.8832579791,15459.6144415481,15150.82518565,4429.43212343879,14714.317560914,14446.4724217114,13095.1867239998,13904.3279338965,13573.0864336063,14451.0488417773,14042.2994769367,14513.303849309,14728.417894093,14851.4680780348,14894.5007465094,4477.54163779266,12998.7582224725,12865.256613616,12576.3370625168,15070.9974561926,14072.1031312415,14771.5501401004,14644.5848774298,14641.6050396823,14055.8278594659,14777.070859154,14532.6788593056,4686.28744908817,10959.3573986949,8789.68700703551,12506.9598402912,14647.5667878899,15026.0026977467,15531.1563006848,13695.3912563283,13500.7152545769,14033.0534601181,14964.9798411308,15002.311064178,4620.16390007884,4345.74034222152,5720.95557101109,13928.4527287865,14152.476855551,14652.5981836846,14205.9315538236,13824.6632082121,13956.5165244882,11921.9421851707,12772.4345526662,14879.6622535054
,84.5,13922.4252248343,15008.1723367713,15099.8286667264,13460.1881153965,13757.2053833788,13718.2530975064,12958.6310745339,13547.2956780569,12668.1961842488,14310.0058315801,14292.8615709447,14946.8589434797,13751.8926007139,15123.1500182972,15348.3712219911,13828.1309495549,14134.2593028334,13674.8183354075,14263.1464993494,14248.1044201066,12851.5931186927,14271.2072109473,14612.2531678786,14399.5391225324,13684.6385942548,15760.5542239596,14808.4067788897,14215.6598356783,15031.6245833878,13862.0218212639,13808.579810438,14742.4080116116,14528.7511666237,15771.4937905083,15927.6973612717,15102.759348652,13728.5003955694,14880.5322677819,14750.8753498185,14016.0175348168,13702.5220243017,13448.5957911745,14990.9235750123,14800.5250301105,13534.2442172036,14546.3092705038,15225.2034535827,14921.1867996151,4420.33107341903,14473.6796794405,14209.7440361283,12817.7939362695,13622.5671840444,13305.1602027725,14167.4527560062,13754.8296239918,14165.6641315447,14434.3941873166,14599.7855574504,14628.4742028904,4468.53048447035,12767.145956543,12652.7399041125,12081.0360301981,14759.2885923955,13810.4179862535,14512.9731602312,14369.7110688496,14329.0357986296,13733.1387414901,14521.5141550984,14279.3067799675,4660.38879518889,10753.349376889,8630.1538406181,12028.5724523645,14349.7253896455,14735.7993124888,15252.6805250511,13437.7023873458,13170.3352909803,13682.2210606631,14673.133950381,14713.5745783753,4608.96066391608,4337.82604292224,5642.68338308336,13628.371397047,13897.0943147089,14375.3141828066,13937.1026173746,13472.6862044351,13610.0114490625,11641.5921748555,12479.1211860164,14587.0301043822
,85,13675.5273771916,14774.8971271975,14863.0746905284,13135.3410231984,13511.8485684161,13468.9213121051,12558.4859086696,13142.0249415713,12249.4072979868,14079.5320750425,14027.7061769166,14764.4296500629,13557.9809469111,14887.7784797656,15112.2895088857,13486.5994595218,13793.4515513552,13348.4035728785,13966.2289517273,13965.2830562516,12600.2379475397,13947.9541424152,14325.3659728272,14104.0455644525,13478.6743048221,15522.0709166663,14586.7167863865,13856.4540812617,14707.8398712949,13568.8814875872,13548.359688833,14450.7741354723,14230.3482178764,15506.7539899707,15677.0142599935,14860.1029746227,13512.1884468108,14649.2129178893,14516.1850714044,13688.0752420531,13315.9983686888,13216.2635683812,14715.2538086204,14521.6199547768,13278.6638436132,14308.2697065649,14983.6171783798,14686.2871013652,4411.25643236378,14229.8334292809,13968.3583621529,12516.7400623272,13319.3573175976,13017.1511633312,13866.8268997318,13448.5407737662,13788.6381105075,14120.5112264277,14338.1099293343,14350.7343726808,4459.20371207351,12530.8560586565,12435.4504013056,11530.8527753658,14432.0432459091,13540.3593315019,14246.9143743133,14084.6800574916,14001.8027421783,13379.051221067,14250.0341007085,14010.919569859,4635.82661434069,10543.535223703,8470.65722754168,11475.3396439481,14029.5005550858,14425.2156204012,14962.6193495457,13168.1785314556,12817.3167130017,13290.6630830558,14360.42979305,14401.4473894316,4597.32994056329,4330.01274675667,5562.98733476164,13301.9104217725,13627.4938664761,14080.2851505006,13656.8573480443,13099.5396963963,13240.778717698,11327.0792145258,12154.7054316463,14269.8554682023
,85.5,13426.283923836,14536.1650215444,14621.1643819114,12799.1433279921,13256.7371537379,13211.6733397415,12119.1359940518,12698.625747888,11783.8411803507,13845.2796828249,13751.5578088361,14579.0303259927,13364.3530565461,14645.6844075609,14870.5830254449,13127.8446404163,13436.3503550946,13007.4066576883,13652.7682556975,13667.6493888874,12338.4190239219,13604.1172007475,14023.9140949064,13789.017959443,13267.0439045545,15276.7563546894,14359.3071009616,13466.1293683073,14362.8123288729,13260.2142755281,13272.4934885716,14137.9469374075,13908.0853997016,15234.3228786936,15417.7402489864,14611.6364423763,13286.7904621164,14409.3727683175,14274.9712377351,13339.3645111091,12897.3135102628,12977.3758382236,14422.3683332655,14224.223423066,13008.6341743301,14063.4858408222,14735.3423117114,14445.7306562362,4402.10008794067,13976.5577487503,13719.7907165101,12179.0372742525,12984.3055826984,12702.6304041588,13552.7207911145,13124.2886689308,13384.2456770275,13783.1668212047,14065.2202259903,14057.193000179,4449.73007757333,12283.9476636068,12209.177972055,10926.9166258336,14089.9931022291,13263.1266407783,13969.6208285245,13783.7784182385,13655.0511047954,12989.4078323783,13961.8491958511,13726.2671147184,4612.75916786307,10325.8104264149,8308.49546448188,10840.6821309283,13687.1101224465,14094.6847947367,14659.6001727826,12885.6263308844,12435.7406543227,12852.3819081024,14026.9041784713,14065.8209502463,4585.08393567813,4322.14233148988,5483.01124755625,12941.9998330344,13342.1251192879,13763.5933675437,13361.5769937154,12700.6855648759,12842.6456420131,10944.3335281557,11771.7665153604,13909.1105961172
,86,13180.3200972572,14287.8683361388,14371.6381063729,12451.8810050905,12991.0198629412,12944.3725404314,11646.7636590005,12227.680303273,11282.874144765,13604.1974048796,13460.6358683105,14376.0026140616,13178.1459417026,14393.6722001151,14618.3574496407,12754.4832439212,13067.2294980043,12655.4087617294,13321.9207637161,13355.4618137039,12067.5307355217,13243.458075099,13711.1354731044,13456.0359435676,13046.361678383,15020.4156488142,14119.9731293869,13048.4201055321,13997.9109934922,12937.5280195402,12979.3267640186,13804.5041306972,13565.1812329193,14954.401208416,15152.4212152769,14356.3615403639,13050.4560452332,14157.2655214999,14022.2167986785,12973.0285820867,12446.9226067219,12731.814058881,14111.9046096837,13908.453399313,12723.1977683971,13809.8952414586,14481.0957498444,14197.7055868145,4392.86415666454,13708.7065814431,13457.5021044924,11797.5324996696,12614.0006768352,12359.9901068931,13230.6376033462,12787.9222323843,12957.5564135214,13422.8436815435,13780.559503144,13748.5923080786,4439.82723611385,12019.7912535498,11967.4796887113,10282.3368762911,13737.991013221,12978.5240115869,13682.637527903,13466.9614384082,13286.4469866167,12567.8621888187,13658.9824104347,13426.4155097467,4590.48275118913,10094.0600494262,8138.78919360484,10134.1676150702,13326.3610608605,13747.1338197711,14341.922556837,12588.8777222385,12024.2700222423,12371.7542188642,13674.6278893128,13706.727219944,4572.6718612997,4314.06067890369,5404.74746982173,12550.0222036737,13041.1025599737,13426.4539498123,13052.5632177042,12275.5704375344,12416.4339373504,10463.0485789404,11304.2308694507,13490.6486936781
,86.5,12929.0451428377,14021.7011198899,14105.0632196755,12091.6086491248,12713.8388881769,12665.2627320892,11164.2623417728,11749.1970157237,10768.6395619863,13354.9303902739,13152.0911802835,14131.979095171,12990.7080094281,14122.8138956812,14347.541150115,12367.4190157757,12686.443377106,12292.4279982071,12976.9979979818,13030.6062760269,11786.5909905609,12869.8411901704,13385.6986628143,13109.7220015217,12810.0667859375,14744.4880894709,13863.1831301755,12609.0984127028,13616.7682871105,12603.6868327007,12668.3389619114,13451.061985928,13200.6594766332,14666.6303841453,14879.5559781512,14095.4334784642,12796.8124357967,13884.7971246413,13749.839403721,12589.0884807573,11967.0728494172,12476.5413681844,13786.4183660692,13577.1291120816,12424.1015858936,13549.2604766506,14217.7973336001,13943.5719000116,4383.36432098306,13418.78912572,13171.861627903,11374.7566056708,12208.9349975266,11990.4620533621,12906.7946961639,12448.7020462364,12524.1679065554,13037.9208137541,13482.0580127309,13423.4866151191,4429.50199676621,11729.4502065139,11703.3968767041,9621.79241170405,13379.8516344299,12688.7838306149,13382.1606246383,13132.8487554127,12893.7178329241,12120.4370476101,13336.9107920469,13110.1411381283,4568.91465458786,9842.04916665757,7955.602700601,9382.65831737589,12950.4324375925,13385.1311180497,14005.5385174225,12273.6698434212,11584.4629419224,11861.108205036,13307.217761395,13329.7607355241,4560.19057931737,4305.80462818833,5327.48773499382,12130.4905508081,12726.9589438076,13071.4245113415,12730.5150788039,11827.3879435152,11967.2669455199,9875.96983022865,10740.822780076,13007.950665275
,87,12657.4943297315,13727.7184846498,13811.1090473213,11714.356543676,12419.3266524544,12367.4919248446,10698.2994005651,11287.6475030882,10274.2583569354,13096.8692964259,12829.6930563484,13849.8611386627,12790.1471887375,13823.8057728796,14047.8280547236,11964.6134506922,12291.2249829686,11914.5055200662,12615.001822616,12687.6381478225,11493.4048065425,12482.5666685266,13046.6901375044,12749.6663019581,12548.0815887301,14441.0254132624,13578.9498347466,12151.2671146555,13217.821421557,12254.4227339084,12321.2018041915,13057.6377514835,12798.7265713787,14369.9072006071,14598.0295418714,13826.7946918571,12514.4973055933,13582.3528655985,13446.9868055852,12188.895216249,11466.0616518553,12206.1702427746,13440.4817815673,13225.6215864364,12107.1688659643,13278.2185457125,13947.6294644995,13680.3902741196,4373.86057906053,13093.8584910533,12849.9133680174,10912.9938502693,11770.7136577265,11597.0113034791,12587.4927611413,12113.81366186,12099.5352181867,12626.9574049731,13164.7111369258,13079.5302099995,4418.62790274306,11401.0511513881,11404.3995386871,8979.86058797667,13015.8430517062,12386.3553356956,13059.8398895231,12774.8177172854,12473.6662474823,11637.6631859556,12976.6286558871,12761.6106528863,4546.86355881552,9558.17596550681,7749.17312565744,8634.41735090144,12553.2794752222,12997.3224032195,13632.7660166582,11922.0173016129,11112.0334364344,11337.9392129942,12926.6031635727,12937.4585333766,4548.32593205304,4297.87152117912,5246.8910957981,11693.8612918471,12397.0907395608,12702.7041196501,12390.5170470486,11364.1446067774,11502.0973753923,9192.85159540644,10080.386332397,12457.0868356498
,87.5,12345.5664935898,13393.7893977473,13474.5363720345,11280.8938787544,12081.5373800437,12024.0930199051,10252.4969675229,10844.811321621,9807.79907535185,12825.5552400729,12489.005190477,13530.2097705756,12559.8427269436,13484.1647289649,13707.0686146319,11523.7419289097,11851.9847882573,11493.7270844947,12215.0167233635,12302.6629711532,11168.0468964597,12075.0990812478,12685.6751476862,12370.1856562994,12250.912447348,14097.1471432297,13255.7887592715,11646.8607741369,12771.5496484086,11864.5079578584,11906.0656632703,12588.662210689,12319.8250696318,14059.7817470916,14304.0125055131,13547.5093520306,12191.6729212749,13238.0096926472,13102.6035781104,11756.1589377149,10939.1395721006,11898.9078655147,13049.1205987549,12829.7971145088,11748.1284321066,12991.9798630936,13661.9968467831,13402.2126954272,4364.03753919478,12719.2793912087,12477.5816159402,10419.2317418872,11304.8564262972,11182.4810147671,12265.7631892405,11778.7870949321,11682.5133286854,12169.5454685209,12803.8187229768,12695.714167488,4407.04299929913,11019.709562041,11059.2559823703,8381.12399621612,12620.710097503,12041.92490502,12690.3051215019,12369.2520902745,12005.0169221104,11064.9620826182,12534.8954921799,12334.0806057672,4522.47510789562,9229.71361761404,7508.0005738465,7925.78657351239,12101.467865753,12552.0133953258,13186.1746425862,11501.077523454,10583.7130306996,10802.289541691,12511.9140698777,12513.9566927487,4536.78998529811,4289.73624708472,5158.04760421558,11233.1174253643,12033.885744634,12301.9364372005,12008.9578612341,10873.540536401,11009.4641626342,8445.15976693311,9333.49139873754,11842.63622401
,88,11983.4972316404,13012.6609884111,13088.7319598688,10763.1577924477,11677.9142487669,11612.6166474156,9821.79103688507,10412.7952162811,9367.26079688322,12539.255141129,12130.6735006065,13173.4703686614,12289.5397018722,13096.9348231373,13317.9047973616,11008.5181560905,11328.7016368189,10987.838963066,11722.9396162298,11814.4042609055,10757.9129648314,11647.3667560047,12299.2128436926,11971.8946603709,11911.1659576296,13703.9446364774,12884.7265415098,11069.4254462954,12237.2215346747,11389.2425889266,11377.344097765,11999.3550894129,11726.7458395345,13731.9869467332,13992.4428840158,13255.0927221485,11822.3428147563,12841.5082936057,12705.1682670154,11259.6908662404,10372.7351613405,11524.5388765859,12566.8430880504,12346.6347243476,11303.2031475149,12681.7594140546,13352.8216598903,13102.2064704892,4353.9228666375,12288.8040456953,12046.4211114586,9908.39751314048,10818.9599509632,10749.7134623708,11929.9195640433,11434.5266414928,11267.251529967,11628.0047834237,12346.4640134728,12234.9727480769,4394.61951512951,10580.1856579416,10659.0663814333,7823.30209614515,12136.5728460042,11594.6520797204,12216.6600693127,11869.3018317029,11453.8788646737,10392.4357172465,11972.6552813486,11796.2606884384,4495.48965054999,8855.98904922293,7232.78810196086,7277.33636778625,11556.1202880819,12001.6854439212,12616.5701576444,10966.16525867,9988.60160198316,10236.634605205,12020.1524194656,12022.3444177488,4526.01459067736,4281.17589570235,5059.91359012178,10726.1804026786,11595.296396577,11829.3896122292,11549.9879712899,10335.1184868474,10469.3984203473,7687.04537726858,8541.64901219557,11190.3811252798
,88.5,11538.3741667099,12567.9333436988,12636.9147870051,10127.3335792185,11170.9973093217,11096.8492927022,9389.88044268047,9970.7958081931,8935.09059587428,12234.7335955627,11757.0086974518,12788.7973671379,11933.4167538821,12638.9510162348,12857.8656953417,10360.0039255442,10660.2149618909,10340.9822170013,11076.9981649794,11173.49162964,10211.1652145852,11188.7545221055,11869.492303681,11543.3169384204,11508.0075684069,13234.6329722653,12440.5973491553,10367.2479794569,11549.0592156301,10773.6726234203,10690.0378527104,11232.6269741817,10958.6946833484,13371.2383022283,13646.6321442479,12937.8634720201,11388.1176464729,12368.2630704583,12229.859353291,10652.3918124734,9731.58350985616,11051.0962957392,11921.0502815527,11700.1011978497,10706.1502682881,12329.7426632376,12999.2182666333,12765.2066604251,4343.29481534,11783.6237605391,11539.1257171658,9389.40203796373,10313.0590425517,10293.4427195492,11560.4975404458,11065.8868600076,10843.360551639,10922.5199337675,11711.4304855189,11612.1642349621,4381.46008360375,10070.9891622549,10185.8026804405,7282.95990789916,11497.025176219,11004.2733643621,11577.0769112917,11197.7307163327,10746.1862347953,9588.81242993133,11237.4043314993,11093.6016149129,4466.30466867057,8435.37912859369,6925.07547763349,6690.89282250461,10863.3112050623,11296.4085978297,11848.9665258097,10257.9573631773,9290.36409553869,9579.49079663006,11372.2193635724,11386.5787299511,4515.91110481043,4271.96851898387,4952.98256864743,10097.5232044077,11001.5042127379,11198.655651111,10948.8701617788,9695.89299565739,9828.82326105699,6978.35139527102,7752.43735687996,10526.1537507566
,89,10984.5245013872,12011.7635778808,12072.552694449,9359.52955189947,10526.1854199694,10442.1650607871,8926.50458266837,9487.86027510325,8482.55379974449,11895.4902951254,11359.8978850696,12376.4591260907,11440.2239056557,12052.1977009803,12268.6128871768,9576.08291747405,9842.9217672236,9551.67053226228,10276.4995355349,10375.4863137613,9525.77054941062,10680.8598251983,11376.2111413973,11062.9542044221,10989.0756322055,12623.2899133882,11857.6574080778,9536.7701946768,10699.4518809279,10006.9746943839,9845.26523298352,10291.5287729187,10020.5231179205,12927.7721197774,13219.4757281353,12555.9172517014,10843.1585819753,11760.6455171134,11617.2938239228,9923.73118894152,9010.80252986368,10454.229853178,11085.8610198575,10867.5741339211,9941.47074726502,11893.2587343479,12563.0398568376,12358.7831962386,4331.9706574129,11153.8789286515,10910.8428548152,8856.49309576819,9779.40022588734,9802.33253331962,11133.085162688,10648.7423294542,10388.1730796215,10045.5484628713,10879.6172337797,10796.5574782373,4367.7151271617,9460.45203969909,9595.8184109607,6751.96972573351,10689.5939988882,10250.9031956963,10761.7356452399,10349.790889019,9882.27742662719,8662.42184893248,10323.5938181253,10215.1137794066,4434.49772295352,7950.2405354189,6579.75796272871,6166.96777753057,10016.9223809743,10427.5815088198,10884.2725270439,9389.47637337687,8501.07824615739,8823.44738392388,10549.1373015079,10578.1017994496,4505.8725836336,4262.23759114614,4836.34662030731,9327.79906902524,10229.1410097408,10386.1506252837,10186.6793265121,8951.89757881135,9080.2175815889,6354.31425006695,7005.87430679116,9865.99481830338
,89.5,10257.0596937162,11242.1978379023,11296.7494757934,8463.36063544375,9721.49119706068,9627.72344483844,8404.01387097541,8934.09718941872,7979.91772487293,11469.5939213932,10901.0690142695,11900.9430559768,10720.3236006914,11239.6351546816,11449.8092690679,8672.38725678177,8892.25046382211,8635.73458389591,9334.06679728033,9431.02815624639,8710.0398316565,10090.6800934298,10779.6839162229,10498.6948456482,10273.7864941725,11767.8307347468,11047.623763492,8600.530827321,9703.60304557574,9104.33460147431,8885.04436670912,9223.97128784796,8961.06406746408,12289.4157027816,12591.8411268968,12005.7324317762,10115.4615826882,10936.2428426527,10790.3110879447,9077.54593176875,8219.08743744146,9729.00118645948,10069.8802518974,9858.927284221,9022.256549025,11285.0251346422,11948.8983421876,11799.0454380136,4320.14688558907,10336.3409741372,10105.90216781,8304.25610483048,9207.40630809714,9261.16234366229,10602.8129484784,10141.4965947543,9863.27150349511,9020.58823339548,9855.53157335343,9794.88611969518,4353.47897046476,8723.73366976415,8863.98014250231,6231.52523103497,9712.54617528767,9332.41758526521,9778.69727173239,9345.15699077008,8888.09284869965,7664.94545190002,9268.60741507344,9188.69744276488,4400.21175662216,7387.65904606472,6195.61747907722,5700.60835484976,9044.83328144107,9422.77617402721,9759.74268427411,8407.24325287086,7657.45559252497,7982.43524097375,9557.56832142738,9603.44728853013,4495.45000325593,4251.7167557044,4712.21927102803,8428.77378876588,9283.69871552785,9398.34656715112,9273.14092032017,8118.60456185544,8239.71528139773,5831.26934614403,6335.46172967812,9212.9212059921
,90,9381.14236259614,10272.0274355315,10322.1695359391,7527.52458241404,8801.72796194329,8699.16224152406,7813.29915767852,8295.32529020379,7422.42822911865,10895.7658585493,10324.4821239309,11298.9994544557,9795.2958309112,10223.7868939305,10420.3516412942,7710.75450858497,7877.07492942337,7658.77793572531,8294.06694930383,8383.39725637076,7800.04171824216,9387.33037838297,10036.2273754707,9802.41162971105,9380.68102854856,10688.447541967,10033.675791247,7639.2296514004,8631.52303454938,8123.10631114122,7876.36428470473,8116.09537846273,7876.85176942402,11416.9436312622,11717.6074592706,11230.0944004278,9228.10543621593,9920.72377374037,9776.51900303413,8158.77835451209,7398.15162805975,8889.86648744939,8931.86136466068,8732.37741491721,8005.58026636662,10475.40299218,11115.537322187,11027.8281258466,4308.29214839352,9365.47063150158,9161.49766833954,7738.05526300429,8593.29671396158,8661.40995359196,9933.67771477268,9509.31400372674,9244.07058416493,7914.60632608232,8692.54577902205,8659.8423943018,4339.56170652901,7904.1864296541,8026.96098361026,5735.07983636877,8615.1496697801,8299.74885357404,8670.9395494067,8238.3429309337,7824.6766394689,6739.51057301846,8170.22015702925,8117.63642291182,4365.99727882694,6785.31334198112,5803.14104702304,5305.15329474256,8022.46524407195,8351.38468514909,8560.93378938165,7390.1632856125,6835.84472893951,7097.51066725636,8453.33511713765,8512.88170388335,4484.983668526,4241.00171517662,4591.14111331247,7448.96932845262,8215.84394506525,8289.90619745864,8260.36726244125,7244.88264180239,7356.30557366696,5415.00209453313,5775.82888276823,8545.10071642765
,90.5,8386.66629712126,9129.08109432233,9177.06444319123,6625.14167029181,7812.67107628407,7703.63933872639,7164.06679182541,7582.71801737435,6822.39957799518,10167.313220589,9626.00900943368,10562.8616142414,8694.9246607916,9035.31719641324,9211.71787267584,6773.17895072618,6887.33678572594,6711.83951035897,7268.18150272698,7357.31758061187,6901.08494211903,8585.01621832394,9158.9191876673,8982.38190472013,8338.83656813983,9420.881298228,8849.39426256994,6725.37057674369,7573.69438840988,7155.5093893217,6917.69340299329,7066.29722338772,6857.37861700002,10324.7777188338,10608.5168027915,10233.349771892,8211.19496251987,8751.35435341882,8614.1701334853,7233.9661799946,6600.56673906581,7982.1937961894,7769.25661654611,7583.09186886799,6986.12608010099,9482.55859135127,10074.3842732061,10052.6062850743,4296.70056226732,8276.24812844852,8113.24242724779,7160.06147972502,7935.87330510652,7999.15816828769,9135.26229457002,8760.38607429021,8540.09154770616,6823.32503964963,7501.19793284722,7476.60077889,4326.37063958374,7035.69339627348,7121.76275232013,5286.81392652707,7513.1084103959,7274.51616969869,7556.4380983442,7136.42486273115,6781.76043890773,5933.57366527007,7113.28416849005,7075.30639340035,4332.65636964496,6163.64412731886,5413.75629520728,4982.95666634376,7032.77487055449,7309.76447381019,7396.76714138921,6439.24298873537,6087.13192185039,6235.14899688052,7331.52369426788,7392.04296667038,4474.31962488207,4230.61944581717,4475.93218529981,6463.9711056821,7119.2063688266,7156.14859916252,7231.848926564,6395.9082515166,6494.91000129675,5105.53448491933,5336.15787236367,7868.76997836268
,91,7328.70838190672,7869.01342323168,7916.17762839848,5838.74722000384,6840.66603197348,6726.29456955222,6495.09166022761,6840.00499501659,6215.59699852582,9295.04882130325,8816.0212387607,9699.64600878328,7493.47299380193,7741.46981438722,7891.18603583598,5989.45024658132,6054.73300386281,5916.24958395523,6392.3245559171,6464.41390733329,6122.49071879086,7717.6888066362,8191.8036354139,8072.80298760235,7209.18848243445,8041.27672120771,7569.02951383513,5970.01935382786,6660.71603773446,6311.16342888431,6114.92493429188,6203.5527034488,6037.02498336846,9054.50658721191,9306.48408200419,9047.98149600705,7121.31437002364,7501.41591336279,7377.31537018629,6406.67570521679,5914.65820369028,7081.51511167217,6741.62872832658,6576.19631459543,6109.20412248745,8352.40164894717,8871.8070240097,8911.16953419757,4285.78561656188,7134.19913039437,7024.11587738652,6576.93964696224,7246.08959193891,7290.53337193855,8242.1600282443,7922.05164112864,7771.08163150197,5922.56076206195,6457.06335691523,6429.49626394246,4314.37169947286,6171.41090229478,6212.48288532051,4933.73591175784,6547.96308477786,6349.17672120346,6571.15678337706,6209.72680601795,5927.46947938824,5324.60897661383,6214.41233464833,6181.0707227805,4300.90608332638,5552.06223741362,5042.69841270972,4743.47804083807,6192.76182739323,6408.06937569416,6432.6294639886,5689.28098211607,5507.25603480391,5535.12354930896,6362.72491292024,6406.92488187998,4463.55694803381,4220.99129955522,4367.35319250804,5638.2074781138,6166.24609520794,6182.28502348667,6326.93434862329,5693.62461462239,5776.92088517449,4887.53143870755,5013.65252348887,7188.8074063002
,91.5,6299.38337625857,6620.23649207397,6666.26148791698,5217.54077419168,5973.42718239077,5856.30707059586,5858.32287964196,6123.12827563282,5648.48980475768,8317.64680860685,7922.52382693676,8738.72255331766,6326.53332484795,6492.76905268758,6608.58172299753,5381.81620634772,5405.78080808137,5295.76806349232,5688.03493881056,5733.10775221021,5487.56694969558,6838.50581497312,7195.62846587925,7130.96476690894,6123.80032896358,6714.89226296029,6352.70752176517,5398.20358304645,5928.66252283547,5627.33102510666,5493.49623370783,5550.48152879919,5434.15553300171,7717.26327943674,7920.63530897138,7762.91461391455,6079.65776529005,6320.41698420575,6219.32294757168,5719.3954059274,5373.89439401202,6255.74122152488,5916.6570991134,5774.05380387085,5421.91837141887,7180.94221141356,7601.29899534496,7682.28206571151,4276.33970123283,6073.51362001948,6022.51516188265,6018.29415371218,6558.75534170969,6573.99561773491,7306.67707205426,7043.57654591239,6977.44681862718,5254.11020859202,5620.66398483185,5600.97323574585,4303.26138023569,5412.92264421431,5420.02297605903,4682.22827361509,5760.63378714384,5579.74941359122,5761.07416789441,5491.14084623775,5289.57603432867,4921.02019484574,5516.90585093362,5483.67947845808,4272.14984632026,5017.54432119466,4725.36560911587,4580.99704598074,5535.4344528342,5686.80537088342,5699.6119458638,5145.72438236839,5097.79421156275,5025.72631617416,5602.54392863795,5629.71695483241,4453.22601072361,4211.88329810258,4272.77209504633,5026.6339376841,5419.77344222986,5430.87311437813,5602.76745439921,5166.00665199896,5235.19955538574,4738.70967455179,4786.87630483323,6513.14364004292
,92,5483.67953586996,5629.74779012472,5671.38652079213,4792.12048590992,5293.33721772706,5174.52664947288,5297.19637091551,5482.63224031718,5161.89141167595,7346.32838237944,7031.03588993338,7761.92890162046,5418.15488681526,5526.12695023685,5609.78268351754,4952.8551700421,4945.99931958174,4855.94105906018,5163.84284645428,5178.87366107162,5008.04902417409,6039.8992087441,6276.4247897782,6245.68821822417,5283.63538979507,5687.24925755963,5419.25746171888,5002.47883758049,5386.92985650284,5114.0328767777,5044.3441588545,5094.47601002775,5030.64041768302,6553.72776106084,6701.17635062169,6599.3982692007,5273.94472128274,5416.44161633537,5339.75721926049,5193.85631929973,4983.34121888265,5546.18673558613,5316.52507030701,5195.7148513941,4935.31938961837,6159.75867810479,6465.31915870399,6548.82147070954,4267.73642559256,5272.41938075092,5270.97048170299,5515.78721519946,5918.53319610156,5900.47908420687,6425.80159305972,6215.29434141658,6235.57981444774,4811.71850590054,5018.03212050914,5010.26275349909,4293.38030635026,4861.82250319422,4843.73765500203,4517.92411422249,5181.42463739507,5006.44921283405,5150.47127522137,4984.42569069949,4859.75134717524,4692.09770516861,5028.02565324004,4994.65259799153,4248.86527544489,4630.6672350403,4498.58219801663,4479.68044466656,5061.03361088105,5152.36849428553,5193.4185586225,4789.75541713653,4836.4685077297,4692.40263247118,5065.33559910531,5074.74952699372,4443.23648947334,4203.79933993641,4202.41849364146,4622.45182959523,4898.15650330141,4913.72996814733,5077.75650448469,4806.3856127662,4863.10432435949,4642.90258266843,4636.45475135269,5883.13278061822
,92.5,4904.30083494025,4924.68154650398,4962.51040459631,4521.63701764542,4803.58927562938,4684.62188296505,4855.68213455689,4976.0620082612,4783.87858094483,6524.6179785767,6279.17095432799,6914.20918764793,4778.92053916386,4848.89940778364,4908.31640396588,4677.76820382532,4650.51055317713,4573.3925035174,4816.04295387772,4805.5915547177,4686.09319563531,5422.80631115779,5560.39350155141,5547.54363084124,4695.93872517054,4970.22857352505,4771.83432023589,4743.77509523464,5010.49592095068,4753.40363280353,4749.03449340368,4800.81375337085,4780.84164732999,5667.47055545685,5766.00423483769,5692.94870625695,4711.09637955759,4791.64008180459,4735.95333629985,4821.42467757029,4722.09970317418,5000.75373435832,4923.24430105594,4822.1113249334,4628.47612636053,5377.39487103086,5581.06032554077,5655.91233308175,4260.09859294129,4723.70467144621,4756.83319062234,5090.9011256896,5367.806174849,5320.5103209167,5706.79973112216,5539.57950911309,5626.92363598395,4560.3638682156,4636.50441819009,4638.30423694754,4284.41254754725,4495.74881148793,4463.38042204688,4420.45646507664,4807.87914975672,4628.32549111889,4747.39913627641,4675.33382743491,4611.00997191689,4559.51152943946,4708.23069568836,4672.58504308699,4229.57482856901,4371.19510500686,4345.59715040574,4414.71742493585,4743.50855518466,4786.77549989379,4879.01831737158,4583.02896256196,4680.14269743957,4506.75648752266,4729.52479644605,4723.12923674555,4433.62652482129,4196.34711695873,4150.97060183389,4395.91599246869,4580.67741378018,4606.21998609929,4740.45964935378,4590.59227503983,4636.92286751807,4582.96424231463,4539.42896564362,5387.22141222468
,93,4542.79102745928,4488.05000260793,4522.1972561288,4367.71555969143,4497.93273831791,4378.23672614267,4550.25413991627,4624.78400857484,4523.04321278958,5880.72953099435,5692.40675091567,6232.78512519552,4391.54841130892,4442.13029151826,4484.68799510664,4522.08960919109,4482.47622952499,4410.70889850479,4604.26435309244,4568.4584532405,4483.87262932628,4982.89734021114,5050.57583009862,5042.90874381665,4343.24144038948,4541.93483075806,4389.8675308024,4586.36912932127,4763.26447705533,4511.57211372883,4566.03596044476,4626.7204681861,4642.61099674119,5058.92389165363,5120.78213596012,5055.7674414238,4372.04400763598,4423.60936284636,4384.08137615107,4586.86729023877,4567.28464075455,4631.5193831626,4697.07985887345,4614.20681037728,4460.43403349007,4836.64460068067,4962.22920111836,5020.90533637675,4253.05197537151,4404.2645340929,4457.24716636203,4761.8805975517,4938.07668644415,4872.63872619383,5173.2577918402,5038.8249894997,5167.1936106867,4452.00136192754,4433.81205094642,4450.69070854831,4276.04169411471,4291.44713116435,4255.55334822748,4371.05959652483,4595.25657094508,4397.96444990601,4507.56943447421,4516.48836375999,4497.00508328624,4492.98862394035,4522.23287994269,4485.59499500751,4213.74621865404,4223.28996336927,4256.54382464484,4373.34813016779,4551.8654224454,4557.63900815656,4704.56835443975,4475.90939507304,4597.49040912314,4430.26881952393,4553.84953842326,4537.52103158069,4424.21340172333,4189.31295055833,4116.49762914603,4303.61553424219,4423.43988653107,4461.66614185633,4553.93949698395,4483.17610393392,4522.0321280642,4537.81223064444,4472.73785487799,5021.99685003853
,93.5,4370.79654556302,4285.6297154903,4317.15794238057,4285.89988946422,4331.92334575657,4211.9731067847,4360.15972154119,4406.21950213267,4361.22472247722,5413.18709433108,5266.07454644567,5715.62344270315,4219.92406383466,4265.87820110455,4298.76158821482,4417.78734477522,4372.65905958812,4304.52228739987,4459.14741425505,4410.80897778713,4346.61527191667,4700.43575573005,4726.28893785597,4714.6605593862,4189.33449619219,4357.63311987858,4230.29726675932,4478.55135813695,4594.92777607153,4347.98725292082,4439.50772542384,4504.43126856732,4544.75271265324,4705.45519215171,4743.8838071991,4671.60673676888,4222.04900425352,4268.71805723196,4240.41634019182,4436.87090984016,4469.95281159878,4398.91639965185,4555.5273866236,4486.87096933584,4355.71264006219,4518.16659035046,4592.41374471715,4630.43559832086,4246.31413854797,4273.4738246015,4333.33881717863,4538.07566042164,4643.71997843601,4567.44347024825,4815.04987055929,4706.47543280317,4855.61608352791,4392.86696359359,4318.68734487006,4351.74789478684,4267.85368653134,4214.49937866309,4180.51913387482,4340.01839452294,4468.81729938265,4265.60502945529,4359.54799182514,4418.29195605528,4428.04032256252,4448.25642353639,4411.48043981863,4374.93027888283,4200.11235249996,4165.19785058717,4218.57669239532,4342.25128588489,4428.5856525596,4411.29249715366,4585.64337487291,4396.64582008243,4534.03638173842,4386.26612701484,4452.46542130828,4434.54965308216,4415.1123358849,4182.57505367596,4097.61103985392,4257.62483899413,4336.01033000047,4383.19317429902,4447.04854152461,4418.45121056958,4453.69005471281,4493.85442879964,4419.09574910369,4775.1948822209
,94,4332.09278302713,4245.98222183965,4276.13667922496,4245.52934108602,4256.29727339299,4135.98431030003,4253.79798715805,4286.39203847388,4270.09625531541,5100.60431357179,4983.46551401667,5340.86289761895,4187.44991781153,4236.6046774066,4268.03369190297,4348.00349970431,4302.96965723839,4237.41446410131,4364.93034658095,4312.5234496165,4258.09925805453,4544.90057444392,4553.28312316438,4531.54796640346,4162.34089115339,4326.6275157894,4205.135627312,4401.6234590673,4481.58848341963,4239.31878596247,4350.6809379208,4416.49766729838,4471.81424198387,4550.84737146103,4579.14001573146,4495.01023818125,4192.87949433925,4244.23652520541,4218.99025938217,4343.88788448773,4405.98999666628,4264.70077547083,4461.60751064753,4405.54863297648,4286.48072863265,4371.35126374307,4421.8750384569,4442.41201966667,4239.5360201053,4255.70363846891,4312.15155289649,4398.45288072406,4462.92163679846,4382.37033642421,4602.7806734991,4513.92544252836,4668.21203983672,4355.39739323668,4254.41811196,4293.88945783587,4260.17350384149,4204.70171537681,4169.67307730631,4316.95000104091,4401.89712747561,4196.92053195495,4273.2839356282,4358.87770272979,4381.84717467084,4411.39212515713,4346.23156098882,4308.7535585101,4188.29922439072,4155.73521878485,4207.99433231038,4316.25252794672,4350.29990855999,4320.87985838013,4499.49490510241,4336.21914533266,4481.14807279847,4352.37098293105,4390.56495125912,4372.50155955197,4405.5684985602,4175.64258714255,4088.29700339112,4223.91954912667,4282.29100372841,4334.5474650438,4385.19635366084,4374.13431531874,4407.17052519942,4449.8100324757,4374.57373933662,4632.36512209641
,94.5,4321.40751838723,4233.3732244862,4264.81463182665,4215.29701385719,4215.69773350688,4094.81091477176,4198.44542382132,4228.26269088612,4217.41344543467,4882.21880737131,4793.63726146225,5068.11974466027,4172.93804994271,4224.76533061517,4257.51103978008,4296.37859400054,4253.92691147006,4190.54196281249,4300.9842368873,4250.65106969578,4199.01701615718,4455.4596190141,4462.46299982724,4433.17410503259,4150.74720496964,4315.134840116,4194.43721221619,4336.3805228553,4389.61102251912,4153.43233300423,4283.46326624431,4345.91026727145,4410.40610021278,4462.31722882854,4490.01073309469,4403.89021746951,4180.49889155661,4234.70688977874,4209.52020744171,4281.71708068895,4357.19336400401,4195.9328243632,4387.93038767267,4343.787030482,4233.27398194453,4286.89643474254,4333.83318891886,4350.71862762911,4232.86809901557,4249.05188245375,4299.42093094904,4302.55011413677,4342.55913375054,4263.2995635979,4474.5481700696,4402.28106354519,4549.69220121024,4327.09032828948,4215.88958117497,4254.96774058688,4252.54089988002,4198.69825195778,4161.89414453859,4297.32136964195,4366.63470341355,4160.52045952474,4223.85832657181,4320.36528723321,4347.63139281206,4377.75672303031,4299.86040947352,4260.51860081915,4176.33493925699,4148.72470466716,4198.67738238196,4291.73411707917,4295.22215162335,4260.20430122249,4427.80362889664,4284.06328184036,4432.35378376182,4323.25437213998,4346.10888405461,4327.49696786587,4396.21459066342,4168.82411464321,4080.34510863242,4194.88752502246,4241.24087486233,4297.32467461285,4344.15249611903,4339.66135725853,4371.50506674333,4405.65597185225,4335.23124530215,4557.57998997761
,95,4312.70240036661,4226.45781515417,4258.51139737622,4200.31828278562,4200.87763333895,4080.52774693466,4173.22150667828,4205.45189123987,4193.49540991997,4691.19972917807,4634.29467676135,4814.66307011635,4158.50330502227,4216.03479912265,4251.15029427184,4265.01757880322,4227.95799094039,4165.57671729525,4267.45627821319,4218.83166594762,4166.46387457703,4386.90970617458,4402.55559251962,4366.88868307571,4144.19988031248,4306.61092822673,4186.13675605129,4303.90174034359,4355.65397337333,4124.66447119786,4235.90619375474,4296.34508234566,4365.82759636324,4398.13329709449,4427.95633401239,4341.78753839777,4169.61176657391,4228.6018505086,4200.44808787717,4249.61108142566,4328.69701208286,4163.29054731866,4337.86375528877,4306.25310569671,4197.19228877294,4235.62975466585,4290.64662384158,4302.13504062187,4226.36279570594,4244.97292597084,4290.34196694555,4275.8970238881,4313.36163156179,4233.24242950739,4391.89668441481,4335.3039232265,4481.05338415205,4311.30839744016,4196.33483265869,4233.18006838482,4245.26475126835,4194.07235537229,4155.64656978488,4283.16421463766,4351.86654405437,4141.87489312692,4194.70764035428,4300.86217077151,4324.03328179851,4350.24732103941,4276.71422192936,4235.59114519687,4164.62860281511,4142.9340459469,4189.4812590317,4271.73710373314,4270.36099798653,4236.02983755041,4375.3197432115,4245.79347585851,4393.80705108406,4302.60998491284,4324.69975773032,4308.96812982378,4385.86794100885,4160.74248677626,4073.07532917474,4172.12008654693,4212.59702537615,4272.73473323709,4322.27234418723,4316.62631367023,4348.57543338168,4359.97840009637,4295.25309436371,4498.86046606337
