,Temperature,A1,A2,A3,A4,A5,A6,A7,A8,A9,A10,A11,A12,B1,B2,B3,B4,B5,B6,B7,B8,B9,B10,B11,B12,C1,C2,C3,C4,C5,C6,C7,C8,C9,C10,C11,C12,D1,D2,D3,D4,D5,D6,D7,D8,D9,D10,D11,D12,E1,E2,E3,E4,E5,E6,E7,E8,E9,E10,E11,E12,F1,F2,F3,F4,F5,F6,F7,F8,F9,F10,F11,F12,G1,G2,G3,G4,G5,G6,G7,G8,G9,G10,G11,G12,H1,H2,H3,H4,H5,H6,H7,H8,H9,H10,H11,H12
,65,21093.1183326413,21299.9682845662,22747.2868434379,21424.4648995342,21439.531234625,21257.7537561551,21069.1901320244,19791.3953946622,20865.931425091,19699.033257128,16705.5036286333,18973.0662821197,21724.9809656335,22729.9259191224,23171.9498079913,22478.911715629,21507.5212073145,22265.605236718,20768.5645083799,20930.3321680219,21734.3262337461,19482.9902746007,19789.6414196421,19519.5714858067,22135.1551789551,23651.403910231,23283.9147186747,21593.3716994267,22624.689719254,22478.942155025,20355.2787207134,20983.1602271021,20336.9887596778,20635.4883772395,20766.1147250588,19713.9467498539,22337.9980968649,22344.6668443492,23029.6093936899,20268.4402487366,20935.4130928315,21053.5793719667,21776.2799252313,21211.2082562251,20862.3012777601,20229.2490701494,19956.37552097,19689.3938925602,22054.1807222346,23094.0587005355,22784.1284006536,21953.0469398034,22228.0441902283,22802.0795685658,21869.2781363538,21050.7255417561,20757.1929991048,21790.8630964254,20756.03364703,21296.6897188323,21488.6874353829,18905.9622682016,22104.6294475991,21008.1461535011,21199.9332376447,21752.2068190361,20622.5570528111,21805.4500720273,21194.4408868421,23697.0479937203,22739.2290608858,21210.5380568206,19488.1774130574,6777.3554352206,6744.97793193395,20466.5746504011,20480.496435004,21125.2878481272,23884.4341069014,22520.088287446,22880.3362178846,22634.1697004391,22486.2909371643,21642.2538305232,8312.22896484088,8166.20171974174,6789.17725609118,20400.0007287926,21872.1065215409,21809.4814702892,22331.1511421782,22213.7280869425,21951.5011772926,21164.9160590454,17423.4907753036,21704.9416363073
,65.5,21025.7322341842,21239.0089031291,22660.8462505683,21381.2688618009,21402.9438275749,21213.8002288021,21051.0436322742,19784.764275385,20851.4755318929,19757.3741301767,16758.8749981995,19015.5340515947,21654.0783082825,22642.3605518611,23076.1680575546,22440.3252081334,21475.1974433081,22227.9721061805,20761.2938922948,20909.5129309798,21711.8734083157,19534.4332583109,19840.4825982566,19571.4189775076,22128.3574279918,23544.6713998358,23181.6143046333,21569.9336579303,22590.1727969037,22431.3270962052,20363.1266020044,20982.8194208196,20397.9964950441,20682.6425806935,20812.3230845011,19766.8098166396,22253.7431527519,22266.7265159969,22926.4561970038,20258.3691748042,20925.5698221456,21037.9535335676,21764.0452962731,21212.0956409362,20862.7539387867,20274.9062768518,19994.7630844325,19752.8388475792,21966.3830950911,22988.516932145,22678.2006942916,21943.4628612553,22170.5248628793,22749.0739051114,21900.0782039721,21080.4748230398,20787.3622556454,21775.8412116872,20728.9466765259,21278.940290686,21389.8880618716,18781.2973244637,21992.4903825018,20964.8566664296,21216.3940390015,21718.9995470741,20577.7923315648,21777.7662472382,21154.9587772235,23657.9891775087,22697.7946022031,21196.5340787391,19372.9538576346,6727.72069034606,6675.88150980113,20470.098871688,20490.7113425936,21136.558239733,23843.1653540722,22494.2478055552,22841.5669622944,22605.9920379807,22440.8322094608,21630.9099358455,8223.29638769784,8081.96351961483,6731.63251287713,20374.3833412266,21842.0894944927,21777.6069497812,22293.5701217545,22187.1465392166,21914.5711273617,21155.9195234339,17441.2047766009,21799.0430043865
,66,20958.3461357271,21178.049521692,22574.4056576986,21338.0728240675,21366.3564205247,21169.8467014492,21032.897132524,19778.1331561078,20837.0196386949,19815.7150032255,16812.2463677657,19058.0018210696,21583.1756509315,22554.7951845998,22980.3863071179,22401.7387006378,21442.8736793017,22190.3389756431,20754.0232762097,20888.6936939376,21689.4205828853,19585.8762420211,19891.3237768712,19623.2664692084,22121.5596770285,23437.9388894407,23079.313890592,21546.4956164339,22555.6558745535,22383.7120373854,20370.9744832955,20982.4786145371,20459.0042304105,20729.7967841474,20858.5314439434,19819.6728834253,22169.4882086389,22188.7861876446,22823.3030003176,20248.2981008717,20915.7265514597,21022.3276951685,21751.8106673148,21212.9830256472,20863.2065998132,20320.5634835542,20033.1506478949,19816.2838025982,21878.5854679477,22882.9751637545,22572.2729879296,21933.8787827073,22113.0055355303,22696.068241657,21930.8782715904,21110.2241043235,20817.5315121859,21760.8193269489,20701.8597060218,21261.1908625397,21291.0886883602,18656.6323807257,21880.3513174045,20921.5671793581,21232.8548403583,21685.7922751121,20533.0276103185,21750.0824224491,21115.4766676048,23618.9303612972,22656.3601435204,21182.5301006575,19257.7303022119,6678.08594547153,6606.78508766831,20473.623092975,20500.9262501832,21147.8286313388,23801.8966012429,22468.4073236645,22802.7977067043,22577.8143755224,22395.3734817573,21619.5660411677,8134.3638105548,7997.72531948792,6674.08776966309,20348.7659536606,21812.0724674445,21745.7324292733,22255.9891013308,22160.5649914907,21877.6410774309,21146.9229878224,17458.9187778982,21893.1443724657
,66.5,20890.9600372701,21117.0901402548,22487.965064829,21294.8767863342,21329.7690134746,21125.8931740963,21014.7506327738,19771.5020368305,20822.5637454969,19874.0558762742,16865.6177373319,19100.4695905446,21512.2729935805,22467.2298173385,22884.6045566812,22363.1521931423,21410.5499152952,22152.7058451057,20746.7526601245,20867.8744568955,21666.967757455,19637.3192257313,19942.1649554857,19675.1139609093,22114.7619260653,23331.2063790455,22977.0134765506,21523.0575749375,22521.1389522033,22336.0969785655,20378.8223645866,20982.1378082546,20520.0119657769,20776.9509876014,20904.7398033857,19872.5359502109,22085.2332645259,22110.8458592923,22720.1498036314,20238.2270269393,20905.8832807739,21006.7018567693,21739.5760383566,21213.8704103582,20863.6592608398,20366.2206902567,20071.5382113574,19879.7287576171,21790.7878408042,22777.4333953641,22466.3452815675,21924.2947041592,22055.4862081814,22643.0625782027,21961.6783392088,21139.9733856071,20847.7007687265,21745.7974422107,20674.7727355178,21243.4414343934,21192.2893148489,18531.9674369877,21768.2122523072,20878.2776922866,21249.315641715,21652.5850031501,20488.2628890722,21722.39859766,21075.9945579862,23579.8715450857,22614.9256848377,21168.5261225759,19142.5067467891,6628.45120059699,6537.68866553548,20477.1473142619,20511.1411577728,21159.0990229446,23760.6278484137,22442.5668417737,22764.0284511141,22549.636713064,22349.9147540538,21608.2221464899,8045.43123341176,7913.48711936101,6616.54302644905,20323.1485660945,21782.0554403963,21713.8579087653,22218.4080809071,22133.9834437648,21840.7110275,21137.9264522109,17476.6327791955,21987.2457405449
,67,20823.573938813,21056.1307588177,22401.5244719594,21251.6807486008,21293.1816064245,21081.9396467433,20996.6041330236,19764.8709175533,20808.1078522988,19932.3967493229,16918.989106898,19142.9373600195,21441.3703362295,22379.6644500772,22788.8228062445,22324.5656856467,21378.2261512888,22115.0727145683,20739.4820440394,20847.0552198533,21644.5149320246,19688.7622094415,19993.0061341003,19726.9614526101,22107.964175102,23224.4738686504,22874.7130625093,21499.6195334411,22486.6220298531,22288.4819197457,20386.6702458777,20981.7970019721,20581.0197011432,20824.1051910553,20950.948162828,19925.3990169966,22000.9783204129,22032.90553094,22616.9966069453,20228.1559530069,20896.040010088,20991.0760183702,21727.3414093983,21214.7577950692,20864.1119218663,20411.8778969591,20109.9257748198,19943.1737126361,21702.9902136607,22671.8916269736,22360.4175752055,21914.7106256112,21997.9668808324,22590.0569147483,21992.4784068271,21169.7226668908,20877.870025267,21730.7755574724,20647.6857650137,21225.6920062471,21093.4899413376,18407.3024932497,21656.0731872099,20834.9882052152,21265.7764430718,21619.3777311881,20443.498167826,21694.714772871,21036.5124483676,23540.8127288742,22573.4912261549,21154.5221444943,19027.2831913664,6578.81645572245,6468.59224340266,20480.6715355489,20521.3560653624,21170.3694145504,23719.3590955845,22416.7263598829,22725.259195524,22521.4590506057,22304.4560263503,21596.8782518122,7956.49865626872,7829.24891923409,6558.998283235,20297.5311785285,21752.0384133481,21681.9833882574,22180.8270604834,22107.4018960388,21803.7809775691,21128.9299165994,17494.3467804928,22081.3471086241
,67.5,20756.1878403562,20995.1713773806,22315.0838790899,21208.4847108672,21256.5941993742,21037.9861193905,20978.4576332734,19758.239798276,20793.6519591007,19990.7376223716,16972.3604764644,19185.4051294944,21370.4676788784,22292.0990828159,22693.0410558079,22285.9791781511,21345.9023872825,22077.439584031,20732.2114279543,20826.2359828111,21622.0621065942,19740.2051931517,20043.8473127149,19778.8089443114,22101.1664241385,23117.7413582553,22772.412648468,21476.1814919447,22452.1051075026,22240.8668609257,20394.5181271687,20981.4561956894,20642.0274365099,20871.2593945093,20997.1565222702,19978.2620837823,21916.7233762999,21954.9652025876,22513.8434102588,20218.0848790743,20886.1967394019,20975.4501799714,21715.1067804399,21215.6451797806,20864.564582893,20457.5351036615,20148.3133382825,20006.6186676554,21615.1925865168,22566.349858583,22254.4898688437,21905.1265470632,21940.4475534834,22537.0512512941,22023.2784744454,21199.4719481747,20908.0392818075,21715.7536727342,20620.5987945097,21207.9425781009,20994.6905678264,18282.637549512,21543.9341221128,20791.6987181436,21282.2372444288,21586.170459226,20398.7334465794,21667.0309480821,20997.0303387486,23501.7539126627,22532.0567674722,21140.5181664126,18912.0596359436,6529.18171084796,6399.4958212698,20484.1957568357,20531.5709729518,21181.6398061563,23678.0903427555,22390.8858779924,22686.4899399336,22493.2813881473,22258.9972986469,21585.5343571345,7867.56607912574,7745.01071910714,6501.45354002096,20271.9137909626,21722.0213862997,21650.1088677493,22143.2460400596,22080.8203483129,21766.8509276382,21119.9333809876,17512.0607817904,22175.4484767033
,68,20688.8017418992,20934.2119959434,22228.6432862202,21165.2886731338,21220.0067923241,20994.0325920376,20960.3111335232,19751.6086789988,20779.1960659026,20049.0784954203,17025.7318460306,19227.8728989694,21299.5650215274,22204.5337155546,22597.2593053712,22247.3926706555,21313.5786232761,22039.8064534936,20724.9408118692,20805.416745769,21599.6092811638,19791.6481768619,20094.6884913295,19830.6564360122,22094.3686731752,23011.0088478602,22670.1122344266,21452.7434504483,22417.5881851524,22193.2518021059,20402.3660084597,20981.1153894069,20703.0351718762,20918.4135979633,21043.3648817125,20031.125150568,21832.4684321868,21877.0248742353,22410.6902135726,20208.0138051419,20876.353468716,20959.8243415723,21702.8721514817,21216.5325644917,20865.0172439196,20503.192310364,20186.7009017449,20070.0636226744,21527.3949593734,22460.8080901925,22148.5621624817,21895.5424685151,21882.9282261345,22484.0455878397,22054.0785420638,21229.2212294584,20938.2085383481,21700.7317879959,20593.5118240057,21190.1931499546,20895.8911943151,18157.9726057741,21431.7950570155,20748.4092310721,21298.6980457856,21552.963187264,20353.9687253331,21639.347123293,20957.5482291299,23462.6950964512,22490.6223087894,21126.514188331,18796.8360805208,6479.54696597342,6330.39939913698,20487.7199781227,20541.7858805414,21192.9101977621,23636.8215899262,22365.0453961016,22647.7206843435,22465.103725689,22213.5385709434,21574.1904624568,7778.6335019827,7660.77251898022,6443.90879680692,20246.2964033966,21692.0043592515,21618.2343472414,22105.6650196359,22054.238800587,21729.9208777073,21110.9368453761,17529.7747830877,22269.5498447825
,68.5,20620.8849571061,20879.6641284753,22149.3113611979,21122.8699137415,21184.7461815088,20950.6652006799,20941.8930548172,19741.0217542422,20763.3831544769,20090.2989511118,17073.3399924135,19254.8437899212,21230.4601329383,22126.0257094353,22511.8037550701,22203.5070369427,21279.8389271035,22003.4915695926,20718.9107187475,20783.9471708393,21573.7448695211,19836.1889596225,20135.1636194669,19874.2463943136,22100.9303077911,22910.9001223401,22577.2887240043,21430.8730310222,22381.7780139151,22148.3855875548,20399.2444787745,20981.2485001872,20768.9522030756,20958.7141330811,21082.8737235636,20075.0579951214,21756.2402149624,21807.8838532017,22312.3544200937,20199.2965380001,20863.9003957919,20942.951998974,21689.3936414797,21217.8061632785,20866.9782841765,20542.8305267404,20216.2999239904,20125.0382015707,21447.3975559603,22367.5679132884,22051.2232233032,21899.2145392087,21828.0600067148,22429.5449359352,22081.0104145138,21256.445747126,20967.3768852298,21680.8090186342,20562.393021577,21171.0816061252,20801.9273837693,18025.7624243243,21323.8462379374,20707.9404682094,21296.8290999777,21516.880186425,20304.3398852941,21602.4547278772,20913.2419671917,23421.0989107758,22449.6778972592,21107.0042181756,18672.2444398562,6409.7802520631,6230.48286038975,20474.4047876303,20536.6334229217,21188.7475987854,23599.6867971649,22338.163423565,22612.9985886524,22438.2465040661,22171.8057115257,21557.1324860607,7651.84128169459,7547.20550607087,6368.11784099666,20224.590866227,21665.5786055451,21588.747338676,22067.3682128598,22029.6879988813,21692.9451147344,21102.655643425,17546.3298924859,22342.772539984
,69,20549.2844980066,20833.8613879847,22077.0574728222,21081.2040525303,21151.9123814737,20909.1110534058,20925.7117718595,19734.9719198502,20745.8256605949,20112.3002697607,17112.8266166259,19266.1483376477,21161.3537398663,22052.1889851674,22432.8901173921,22151.7535625085,21243.519868869,21968.483141348,20712.3822355997,20761.9418429405,21544.998163368,19869.9570212873,20162.8608630475,19902.3910884077,22112.4135068789,22817.7722162608,22492.5164511481,21407.4934064947,22343.782251006,22102.2850625062,20384.1683987765,20979.3107590529,20834.5026419916,20992.8977017218,21117.1119464475,20106.5548025925,21686.6978812051,21740.4539307675,22215.1362433241,20190.9959551851,20846.9836009549,20924.2092658768,21674.8164464584,21216.0165653879,20864.9326672515,20576.1293454614,20237.2137460324,20168.0570023569,21371.8695962071,22281.2346034438,21958.6053054042,21912.5481664867,21774.9878376741,22371.5183724931,22101.9700073692,21276.7920326012,20993.059694671,21653.6084691148,20529.0845926855,21145.1101793129,20714.7741928881,17890.7881880868,21217.7088584837,20670.6251559158,21277.1050471952,21471.1668546359,20252.2908592872,21554.6683890349,20865.2511456279,23368.6328726995,22404.6774944335,21076.662978944,18543.5210000206,6321.95586149366,6099.77451816772,20448.1379007519,20518.7875903576,21170.9455712449,23568.2667333884,22308.4370716996,22582.2261230277,22408.8059047004,22131.6410137473,21531.4915602734,7488.54000597421,7407.59128934575,6276.82772013834,20204.7885854302,21642.7511550025,21560.9300831097,22026.7942758839,22005.1213317168,21653.8273244834,21092.6755927999,17558.234439934,22392.1640513688
,69.5,20466.5199718674,20792.6681617816,22003.497745421,21038.8010759299,21116.3266665639,20864.4608503842,20903.6987047135,19728.0516841614,20723.8971949766,20110.0165412728,17142.3092059123,19265.1923679977,21088.3870921492,21975.2116132899,22352.5308575925,22089.6651229496,21198.8140120922,21927.4733482594,20701.6287690984,20736.3449438385,21505.1871618152,19885.7038198835,20172.1927399881,19913.2558488134,22098.5498952027,22723.0786027324,22409.5322163749,21376.0838326427,22294.978263297,22049.9277339131,20354.1487165476,20969.4843811122,20887.7184674954,21013.1384039802,21137.3341820843,20122.729035124,21616.6701814256,21665.285450099,22113.0496658858,20174.7098833067,20821.6431616386,20893.1469529268,21649.035560976,21202.6011915274,20845.8549606274,20592.9242520683,20241.293453254,20193.6625919926,21291.8243791502,22197.843626755,21862.9055953602,21924.5537334949,21714.329733335,22304.3838986947,22108.2301445413,21283.3789784833,21004.0363570411,21610.4473487317,20487.9513145591,21103.2858731153,20629.1612265258,17751.0605716137,21107.3487293503,20628.2976150612,21236.3789570656,21412.8687788932,20193.8152886907,21491.9945816583,20807.3103011724,23297.6428582254,22350.1835718188,21029.2902622259,18408.4443163432,6216.72135083009,5939.4265865776,20405.9172437518,20488.1530916647,21136.6203629895,23532.5368399865,22267.8319139759,22547.945716221,22367.2165074237,22085.1058401797,21490.4771146183,7292.8073487011,7245.99276319117,6170.65131959471,20184.3463779962,21616.6077608067,21531.6812797735,21983.2454851965,21972.1018026526,21609.2516835858,21075.2063514575,17560.9069416131,22410.6144615254
,70,20366.7841420386,20743.6165406361,21924.0443551975,20992.4800925885,21074.01277902,20811.7590249106,20869.9389543473,19713.4902965773,20690.6309725235,20079.0673713045,17157.1024363497,19243.7870345389,21004.7208462009,21886.1498862913,22264.5318545629,22011.3979405395,21137.9258792695,21872.7128829115,20680.9282363445,20696.9817830586,21447.5117023474,19876.5434534705,20156.6995465853,19892.551305756,22052.425416317,22618.4684973879,22318.2538474875,21328.2218768822,22225.7173067983,21983.1124574006,20301.2753109832,20941.0683444497,20902.8289655872,21012.3145483226,21130.5295113417,20113.4486649308,21534.5315362094,21572.1055429675,21998.9850249738,20144.0909806463,20781.3632030383,20843.6192828117,21605.923282837,21170.2532125598,20800.3029365361,20585.3388756673,20219.5620282782,20196.937861553,21195.7555588371,22106.2980481352,21758.9335208923,21920.1357817873,21635.9042990845,22221.1274710031,22092.9357781664,21267.0783977073,20990.5866700887,21542.0565892127,20427.818002363,21036.1269122335,20536.6112134598,17602.5950706464,20985.9416645689,20572.3159401433,21171.0351017064,21334.2360204698,20119.1359377838,21400.9798991375,20731.1347955475,23198.5098650461,22275.5414387281,20956.2441218866,18263.1492384829,6096.83663198999,5755.61897499325,20342.6836859185,20437.3504874188,21081.0340559548,23485.3480110034,22207.5636795374,22500.3560495211,22302.0649566784,22022.7564971898,21426.9687904556,7069.72979291372,7067.50539912811,6052.49700873626,20150.6306884237,21575.5711794631,21492.0659556029,21924.0940197441,21922.8806508822,21549.6528286874,21040.5147890318,17550.1904339603,22388.1134910607
,70.5,20245.9678846129,20679.713726104,21829.0649941557,20935.9797446406,21017.5181497314,20738.7192491028,20814.0906427212,19680.9508592868,20638.350729568,20018.0205789013,17149.6690539659,19199.9923772929,20900.9267883015,21776.5861728086,22158.8345118545,21907.3323658405,21055.7649284146,21795.0919759922,20652.9596287884,20631.1354488779,21364.5590371872,19835.8387750375,20114.855254749,19839.2844733306,21964.5593965443,22495.8520135099,22207.8950091998,21252.8607527272,22129.9344606991,21892.0264311502,20221.0185112043,20885.0053001365,20872.3439751207,20980.852410175,21092.8567515551,20075.2219783514,21432.389156409,21452.8117700005,21865.317252269,20087.2950905648,20717.4834211661,20768.7703975384,21536.529064962,21110.0051617389,20721.0320984769,20545.3281672014,20167.9391972014,20176.2835077991,21076.55245822,21995.2763420072,21638.7852294752,21875.0616512738,21533.6955149991,22113.9854580076,22046.8270627897,21222.8727246506,20943.7209999002,21436.5351447095,20341.3873004929,20934.2964067573,20422.0839366107,17439.6817228762,20845.3720848339,20495.9585751873,21081.506055356,21229.4732128944,20021.5923718642,21276.3620939796,20625.7457331178,23068.1789757624,22173.3277045089,20854.6185924818,18102.554899539,5968.15436612173,5559.22090038474,20253.1431143489,20358.3439454678,20997.9668868404,23416.1789268167,22121.6389793512,22428.7477558532,22204.8237285527,21933.0947475358,21334.7069244021,6828.84825767725,6880.49768382577,5927.70388470085,20102.2357901801,21515.5007912286,21431.1909595174,21843.4768247437,21848.6218202386,21470.8811635093,20981.8114399581,17518.4682875026,22320.6619278584
,71,20100.9732430967,20598.1682380793,21710.5159116694,20856.8388991079,20936.4764795947,20639.1355635,20728.4136672982,19623.6906397717,20559.7626106713,19925.6583487691,17117.4705420787,19134.3179810858,20773.4957189929,21639.7966099114,22027.4530481289,21775.8825790298,20949.6145674628,21690.4708546881,20613.7244691059,20534.589920572,21252.9199472492,19761.5514352601,20043.4040394652,19753.1338176545,21832.0839708351,22349.9791502781,22074.1973058323,21147.3227768838,22003.5203322471,21769.0360662371,20115.7643861252,20796.9885765675,20795.8525908172,20915.3538229151,21018.9506412314,20004.8793851391,21303.3397660979,21303.2461758702,21707.7095510229,20002.9298448404,20627.4448432557,20667.9949518709,21437.6097032152,21016.4412624952,20604.6704625177,20470.8691980877,20084.0755982304,20134.4272460383,20929.6246376581,21855.2474950599,21495.3824630149,21787.414501721,21405.4023927133,21980.1059208383,21967.0794281302,21144.9521968324,20860.8156999887,21297.5606242342,20225.5941293738,20796.3074438418,20283.150430564,17259.0968738344,20680.5228734455,20393.6282255182,20968.2586768982,21098.1548884323,19893.9608149555,21118.4848899947,20489.4602822242,22905.1969884967,22041.4971939843,20724.7311157794,17923.443658352,5838.5588008987,5364.09206992017,20134.7432614911,20247.3512154667,20883.6300173685,23317.6330756419,22007.4924459311,22324.6622003224,22074.7342072146,21812.6762520209,21214.9160579262,6585.01837220352,6694.72256875215,5802.7141082209,20027.4200891198,21428.0760697374,21344.73945619,21737.5862141217,21742.977848107,21366.5533451394,20891.4292821429,17461.2949256678,22218.6704988785
,71.5,19932.8160512405,20499.6995114782,21566.3700693268,20752.0759848853,20827.22667949,20510.1213072035,20611.9906660106,19533.984395678,20452.4831182569,19807.2283222381,17061.2526811939,19048.7360084666,20622.1449675566,21476.6686461085,21869.0275259229,21622.5513304787,20818.8934908137,21557.0503856226,20560.6114555954,20404.5633779374,21110.4337505547,19655.7682645634,19946.6435070317,19638.8489718706,21659.7550417642,22178.7068474188,21916.2179375385,21010.6632922004,21848.8169277982,21617.5015447447,19989.1736237631,20677.8121273533,20678.3330281664,20813.6270271175,20906.595716654,19906.8205771818,21146.1680826853,21125.9577986239,21529.8869281659,19889.8881777043,20511.9688098262,20538.5223606109,21308.5780951448,20891.2404473905,20455.794467242,20363.6428349483,19969.3066038286,20074.047572632,20755.6944624842,21686.3604700959,21327.666296283,21658.2816379863,21249.273515498,21820.9732858083,21857.9959123388,21037.2006200291,20745.0913298807,21127.8923470495,20077.3395487902,20626.5510241684,20116.0603976174,17058.8956154844,20491.5723752351,20264.7645260023,20831.4542969917,20944.5198436594,19736.867452122,20928.8744153984,20322.8568723311,22714.5334700598,21880.9101153086,20569.9146593732,17726.7186508013,5715.34521404499,5184.24493545589,19988.6034725237,20106.113447854,20739.3776834037,23185.3212246078,21862.6337439566,22187.7999034481,21911.3588174614,21661.3379211207,21070.0711699236,6354.16500452751,6520.44460573816,5684.31876567931,19923.8121586136,21309.1516033445,21229.8153586283,21606.4478932631,21606.6496333266,21235.3006491522,20770.5809977725,17381.8905289465,22084.9631980302
,72,19747.3965784591,20383.5845763419,21398.8395982942,20620.1262043991,20692.9129918212,20354.7592767584,20469.7275235323,19413.1448789451,20316.8989680175,19664.8348549007,16979.7620978613,18938.5809617235,20448.2901611218,21290.353364163,21686.6894289431,21446.4772260248,20668.526476753,21399.6877717396,20491.0137000449,20243.2966352805,20942.1385515637,19524.9294644286,19827.5810745832,19496.9590450916,21463.2425933809,21986.6714636087,21733.1456238083,20846.3992282801,21669.1361247967,21441.2695073234,19840.7559955074,20530.2762529403,20527.495141764,20680.9033527649,20764.0176297915,19782.8363206551,20963.8599901687,20924.9067800003,21329.3679311541,19753.7758297119,20374.1288112454,20387.744957886,21153.863358247,20741.1255903234,20282.0601058869,20231.8416988367,19829.5171124716,19998.0380296679,20558.5163645781,21489.2359860563,21138.2876042314,21493.9377006016,21070.8503513345,21639.6430066806,21723.7893379344,20902.7437020496,20603.6997503361,20932.25345989,19901.6629194288,20432.5405034666,19923.2033208676,16841.307564469,20282.438967454,20112.2780981545,20672.2841610481,20769.7483918484,19550.5813978461,20712.8695845441,20129.1669652718,22503.8775576428,21693.7877737425,20396.3935076145,17513.9749289588,5605.02846230131,5029.96518178308,19817.8630651392,19935.3433316876,20568.4066649587,23022.70396147,21693.1179707365,22020.9353011443,21721.7326313825,21484.4536578731,20902.3753647966,6145.76098549729,6364.00633242479,5578.79475938688,19789.6079530532,21160.1025276924,21086.4225574365,21447.8731345955,21442.3361533395,21076.1763531794,20622.4204955288,17281.9154438772,21925.1835063728
,72.5,19548.4151385855,20258.0818898182,21207.4238378556,20463.3270666244,20535.5037776592,20175.4551871448,20303.4871447003,19267.1895466615,20159.5129273643,19505.9291933439,16877.0857166319,18810.9581896509,20254.9325944003,21085.2124429141,21483.3645333341,21251.3693992573,20505.103424006,21219.484879142,20404.8710039344,20056.5294718444,20753.7669889906,19376.3148781494,19691.8842906625,19340.2711289092,21248.4351090158,21776.9284148775,21530.777667388,20659.4472053446,21468.6717129605,21242.7194670257,19677.7727240803,20362.3792193422,20357.0803958824,20521.9477535921,20599.8165000131,19641.0892829992,20762.2014309588,20706.3372803898,21112.9385646743,19596.6716055598,20216.4452857253,20217.6528711466,20977.3748221679,20567.682191343,20087.9424262045,20079.7421209866,19672.8304463638,19902.4758071049,20342.6062545968,21270.5395217745,20928.9675724173,21300.5007533663,20874.7492346401,21438.3704522048,21564.8210362173,20747.3724282695,20443.4577419238,20715.8057396497,19703.4025199996,20219.7064695113,19707.5011136757,16610.0867039168,20054.0811894095,19939.3277279271,20496.4109187452,20580.0078247088,19339.5634660423,20478.8029392602,19914.5061555236,22278.9115291937,21487.1068675868,20210.903758703,17288.8489188338,5510.98719811095,4906.347454922,19627.8427017348,19741.5296636687,20374.173368616,22831.8005195926,21502.4628557171,21829.9878764639,21513.005140082,21287.2956324622,20717.5548997193,5968.37853419344,6228.79154870283,5487.90558233601,19631.6293036366,20989.6401309123,20918.3571836504,21269.7857295753,21254.7499326412,20896.8475890518,20452.3078231103,17162.6743826671,21746.8685492078
,73,19340.7677748627,20122.8057597937,20999.1891388583,20283.6152910803,20356.7022008341,19980.1013949973,20118.1267199083,19100.8893783545,19986.4005989297,19334.3053613432,16758.6515272128,18671.7773886836,20053.1409437673,20865.6099630651,21262.9199668309,21042.2754180503,20329.5848600097,21020.7955649319,20281.8342156686,19855.426132646,20551.3286117558,19216.8370818472,19541.4613172525,19171.9788300582,21021.4949718722,21553.4897079276,21312.2329969151,20456.0875103174,21252.0516337297,21029.108781011,19504.7285720966,20179.1916606208,20173.8142261842,20345.8265498937,20417.150949631,19486.1111570528,20544.9638441612,20474.4473091069,20883.3742614898,19426.1395962421,20044.6953251842,20032.6025165254,20786.8428997175,20377.9087483155,19881.2645921921,19914.4803483427,19505.2472527305,19780.553153922,20111.6764626167,21034.8468164818,20703.4076483004,21092.0442667292,20665.840543315,21223.7290223006,21390.9935395311,20575.2679941493,20271.611594233,20489.0323170009,19490.6487567009,19997.0376879509,19478.8981565949,16369.3354636864,19813.0239353343,19753.9877757603,20309.0116841397,20381.180675686,19110.8040311996,20230.2024794794,19685.9821819448,22046.0664823363,21269.2516586594,20019.0562045822,17054.4190683774,5432.48583017042,4812.61573145376,19421.3564639474,19530.4937476215,20159.9820470972,22620.1060892691,21296.4677356439,21622.1972798918,21291.8693503195,21076.960981192,20523.168246695,5824.33880180848,6114.17081717989,5411.58989592089,19452.8145942111,20798.055822875,20730.7235179561,21072.6745839127,21051.2730570654,20699.7923261158,20266.3338203195,17030.0212261368,21554.5051408933
,73.5,19127.1820223217,19974.7635915458,20779.1302505428,20087.6985689122,20162.9344185119,19773.8133501613,19922.9747534707,18921.2417116961,19799.9810109069,19154.8271038569,16626.7076545485,18522.7250157078,19844.0746027294,20637.1354560695,21032.5605799468,20823.2215537785,20145.9711335123,20807.2627326684,20124.6683853202,19643.3026881382,20338.1106192068,19046.5462973386,19379.9737458061,18996.089995042,20790.4762245114,21319.0400288578,21082.1903352493,20239.9863033097,21024.4538012361,20805.9227672879,19323.8477765245,19985.4732151408,19981.3411357007,20153.8694629425,20224.487478408,19323.4511717127,20320.1173147764,20234.9368493897,20645.1186330153,19245.5154074772,19860.7152290193,19837.1791411863,20585.0531825069,20177.6737036531,19666.7425751808,19738.1133081317,19327.7940641792,19634.4825022558,19873.9330909613,20789.3382897393,20463.9537442657,20873.2299456004,20448.3594661882,21000.6269961419,21206.2290102926,20393.0655399015,20091.0630007671,20254.0030991427,19268.1859726123,19767.6262655223,19239.5724938983,16121.2858391889,19564.080492235,19558.4506197097,20111.4702114288,20176.076177379,18869.6043553025,19970.9042604475,19445.9225374955,21809.9403116976,21043.44574632,19824.2550045792,16815.5411449279,5367.20095278085,4744.39544202844,19203.005898564,19307.5379391399,19931.9307803935,22393.262439205,21080.5650793595,21403.7903436992,21062.8771066324,20858.5471712869,20322.8748042318,5710.22655285697,6016.41590710712,5348.16669924826,19258.5808723852,20593.0852279772,20526.997547249,20862.642447995,20837.160835179,20489.2517864785,20071.6404209376,16888.4205368108,21355.2494558669
,74,18910.171891554,19803.5662693873,20549.0668489943,19880.2506705067,19958.6608318344,19561.6462462118,19719.8403178049,18734.9677782713,19604.4421199838,18968.2778941436,16485.3206564401,18363.0379284021,19630.2329306886,20401.6573993124,20795.4103692404,20592.8773350517,19962.8659150644,20583.5430382871,19938.7787225322,19427.605867523,20120.0680257124,18871.120905243,19208.8680631678,18815.5317192618,20554.9041794265,21077.3209497489,20841.228117985,20015.747319787,20788.8990311055,20573.594419036,19136.1959480041,19784.0930827136,19781.7826869552,19953.4177026269,20024.8600669296,19153.1811887114,20090.6485457304,19990.8632168149,20399.5117549738,19058.6885372904,19669.3846574653,19636.77795619,20374.7647602869,19971.1158612544,19445.9241573637,19552.0650761164,19143.4639706791,19468.3035006702,19632.5389849303,20537.9984828275,20217.2403063321,20646.4776660333,20224.8111447965,20771.7078079001,21010.625358462,20202.8722303079,19903.52769777,20012.3393798076,19040.5214095081,19535.6401228544,18995.456324163,15870.9602887368,19310.0638401845,19356.8047909646,19906.337270597,19966.3344548081,18616.8872681925,19704.3904200755,19197.0609581954,21572.0968539562,20813.4826413788,19636.6460862321,16570.5946393567,5311.81218012944,4695.16347665992,18974.5330729015,19073.6446930136,19693.0906558067,22157.9581521811,20858.926013863,21177.6551294551,20830.2955006413,20636.3639554267,20118.0238450041,5618.97684272948,5931.12190557116,5294.00965297486,19055.7398588985,20380.2017044281,20313.2380493533,20640.6268236922,20615.0185402308,20269.6982937503,19870.7483678048,16739.125052893,21151.060607584
,74.5,18691.5930640039,19614.1303194688,20310.7995243856,19665.9146896621,19745.9393017182,19344.9103106401,19510.4673578574,18544.9556438609,19404.9168407022,18781.1905549018,16337.0242347785,18200.9259771492,19418.3759751667,20161.0140843167,20553.0264247866,20356.1930191048,19789.4753359287,20350.4169352995,19731.4086917373,19208.3768711168,19898.5251938162,18690.0829815008,19029.9107057399,18634.4372872062,20317.3289622156,20827.51933294,20595.8592398797,19785.1828416448,20547.9385042219,20333.1555638346,18945.6295468206,19579.4342487989,19577.3016646075,19746.3650001465,19818.2292084505,18977.4194863469,19857.2086389383,19745.2752321038,20153.3689163216,18866.7384614098,19469.7459750426,19431.0571750233,20159.6943850219,19759.1112920773,19221.1948712232,19356.7297677564,18955.0987938065,19285.3360613497,19390.6848590512,20282.4026245496,19967.1003857233,20412.9806866163,19997.2618281565,20538.9326888042,20806.3049607973,20006.7524934694,19712.2194003839,19767.3609972595,18808.3537103229,19299.9362573456,18750.1700560015,15620.0484362884,19052.5254400242,19152.6435777191,19697.0090142758,19754.0968250291,18355.9150037641,19431.8556665804,18940.9599984318,21332.2904788065,20583.557658142,19461.7804116885,16324.0598951652,5263.17523256547,4659.52994977118,18738.0166556136,18832.3009930063,19444.7431614779,21916.4644802782,20632.4647825896,20947.3866610251,20596.1168352803,20409.1904175787,19913.3582147697,5545.81306724243,5854.30016362123,5245.80432290481,18847.6961154225,20161.9991734903,20092.1243204806,20410.8909546077,20389.0356226064,20045.9176184079,19665.0737886676,16585.861146339,20942.5811562743
,75,18472.752420932,19407.1060587847,20070.9614920384,19446.017840343,19526.2276317496,19124.9920852544,19297.3269795932,18351.9188262046,19199.3637540962,18590.0495580281,16183.0862017087,18034.4682038829,19208.6880635564,19916.7974832726,20308.2415954339,20114.9267263033,19621.5920414812,20111.6502821631,19507.2795169768,18989.597479248,19672.3856121695,18501.741676397,18844.56957464,18450.8142838878,20078.043763095,20573.8398955711,20345.5147907172,19550.8167613449,20303.9535750354,20088.7773557592,18751.6753519061,19370.7909249115,19369.2233980306,19533.977832928,19606.6103895222,18796.7864824035,19623.0824211545,19499.2450761149,19906.3557832297,18670.6160860846,19265.166709169,19223.6020116635,19940.6238023694,19544.5737342406,18994.9341535827,19155.6445585198,18760.1851074844,19090.6631135514,19149.8911049734,20023.0932042067,19715.0353310061,20176.1555584871,19767.2451371955,20305.2223682624,20598.4780362523,19805.0872787511,19516.5419331284,19522.1414306088,18574.5059840622,19062.1325526128,18505.6894076375,15368.6926609844,18796.1464086527,18947.6491347222,19481.2195453617,19541.9046845734,18090.8703866597,19153.5187818132,18678.0653854277,21092.4671359503,20352.8341322393,19298.2140241173,16078.3367453864,5218.92409681738,4632.3492196647,18494.2973325097,18584.5825365525,19190.5661208824,21673.4539698359,20405.5371623561,20714.8675859874,20361.2624921152,20180.7541117148,19711.1295806216,5484.99614433201,5783.41476601417,5201.93716495578,18635.4091068605,19938.5898768901,19866.4397483634,20175.0489812707,20159.9509518599,19818.1398572654,19456.3640651686,16430.2659207462,20730.7729567892
,75.5,18251.2013298822,19184.8160236168,19829.8007267193,19223.7504092802,19305.563903661,18904.6211180543,19085.3976318788,18157.93015597,18988.6377910918,18398.1110916742,16026.9717103727,17862.9475893488,18998.6788484721,19672.2566767691,20063.8342195473,19871.3991098453,19462.0335693441,19870.7922372753,19280.3053882958,18769.1717621097,19445.7373770384,18307.6574763922,18655.4233590305,18265.1656520216,19839.2980244934,20317.140294478,20094.3157888263,19314.5064475021,20058.5431075212,19840.8021691557,18555.7340507469,19158.8837384619,19159.2015612703,19315.791408226,19392.5231579151,18611.1784662131,19390.1210055068,19256.1911904096,19660.6939140339,18472.3856218858,19057.2704781908,19015.9848245853,19717.8070375538,19329.5649852891,18765.9349007295,18949.4700347756,18559.6313224683,18891.7424572285,18911.4881634369,19764.1762866175,19463.0971787001,19938.6358104292,19536.3343924426,20070.9547506352,20386.9621401078,19601.9143570994,19317.6367524053,19277.3453650679,18339.6976799769,18823.6463746035,18261.8042145135,15118.4328261928,18541.0637071763,18739.5134003661,19263.263394542,19328.1336585275,17820.928961695,18874.5459257217,18409.799075776,20851.6815309125,20121.3653535105,19146.4697986789,15834.5710350276,5178.52346118982,4611.0691054196,18247.2704601936,18332.9684390636,18933.1067465301,21429.7022910564,20179.0030762703,20481.2659286848,20127.2344130367,19952.4774019675,19510.1609216398,5432.53733236784,5716.4352293701,5161.22419626411,18421.8105116088,19713.9295927644,19638.5131097274,19937.6016414368,19927.5550437332,19589.1186758305,19245.963519486,16272.9141397136,20517.4054267041
,76,18031.1601073589,18954.3697484213,19587.9787901869,18999.567533422,19086.0571427103,18683.6331518741,18870.9915718953,17961.7536906848,18776.9188721689,18204.7204262058,15867.1364930389,17686.5806767398,18793.5035686176,19427.4315651565,19818.7241199782,19625.8563705207,19307.2922447601,19628.8066134421,19053.4402787063,18548.6717946599,19218.8248312273,18111.7559067703,18463.2985045262,18077.5477028246,19598.2483692798,20061.1208658111,19839.8195796112,19076.4117690974,19811.9471193144,19590.7567950081,18358.1511739918,18945.935427944,18946.7888027173,19095.5278623546,19174.4645437398,18420.9405405521,19154.1015616312,19014.774288946,19417.0676786908,18272.8938831566,18849.5004199098,18808.1068890985,19493.5098512159,19113.4804412431,18536.2917717948,18738.9003608299,18356.1145643249,18690.7304996365,18672.1669423573,19504.9717185625,19213.5132322641,19699.8096874048,19303.6107321572,19836.4470274558,20172.4220529054,19396.0554700496,19116.7435135539,19031.4398292741,18104.605717795,18585.5151876157,18019.957154381,14870.102791175,18286.8872547008,18530.9727936259,19045.1210451406,19112.457006092,17547.2131996784,18593.8612233422,18138.8145562928,20610.1405830217,19890.5480651453,19003.8492012267,15592.1076829015,5140.55312657083,4593.79207379544,17996.4690726193,18076.9650262137,18673.0617386723,21185.9355272473,19952.136567423,20246.7742507265,19893.9531869416,19724.2680842948,19324.2584349204,5385.47752931825,5653.18068281632,5122.76206981908,18208.2612788059,19484.2792653233,19410.2670786745,19697.4116616741,19692.4975429757,19359.0526344304,19032.8629406914,16114.9475572476,20299.9847274165
,76.5,17812.3465682198,18722.9256332343,19348.0935843471,18775.5741930688,18868.4399436357,18462.4690828154,18655.5945662418,17763.5948210056,18565.6586840055,18010.0354347615,15703.7278454548,17508.663110719,18595.0871459348,19183.1114027446,19573.2668578613,19379.7970594168,19148.5709475481,19384.7939287213,18828.5661345891,18325.347365867,18990.7348462171,17910.6873438112,18269.2091931071,17887.5902644166,19358.2520138828,19805.7193562705,19587.8728685758,18837.4706520879,19562.5169566341,19340.6545284232,18158.2558980708,18730.8220174684,18732.7265045883,18871.772827575,18954.0699003862,18228.9992987944,18917.8185265576,18775.0037724881,19175.1443190965,18071.1564273129,18639.9291507212,18598.7919808322,19268.6821025903,18895.7743864542,18306.0113858475,18525.0129873667,18150.3036653234,18485.9417008087,18432.1689359059,19245.4721237663,18964.3395919506,19461.1766792018,19071.3195121157,19601.9955305899,19955.3331209517,19187.285597299,18914.0408583904,18785.3773842526,17870.1716427562,18345.1639088725,17779.6302827633,14623.1697228175,18033.8857211631,18322.6110243952,18826.0011727907,18895.2406756571,17273.9231518529,18313.3730692492,17866.0051588203,20368.47772971,19660.4787707967,18854.6352554431,15353.5782170472,5104.8730259335,4578.81093188044,17744.7557819222,17819.8130246346,18411.3468506157,20941.7973736952,19725.2106454052,20011.9926886674,19660.9434830192,19493.9045474463,19152.6962544133,5342.70978166763,5593.47571355849,5086.07311639363,17993.8455860813,19251.1538216826,19179.8853468317,19460.1754551199,19457.2200545987,19127.8959995992,18818.8540376074,15955.9847549713,20079.6598391024
,77,17592.90857874,18490.8333281725,19110.6971376012,18550.098453213,18651.2214330582,18242.3433003779,18438.6657369982,17562.806302434,18353.3488503489,17810.6073738383,15536.8113563673,17326.8173398723,18401.807986961,18940.565633311,19329.3109551752,19132.5085258441,18967.0121178488,19139.4114181023,18603.3680354902,18101.9343801686,18762.4492600123,17705.6353723499,18074.2468259251,17692.795468519,19119.9917069042,19552.9859612709,19335.1757347643,18598.322857752,19312.31568858,19091.2347099134,17958.367217046,18512.591228507,18515.7071471873,18646.25920897,18732.3343386907,18049.7642756923,18682.348369602,18536.6302338885,18933.7371436326,17865.5935357079,18431.1949438138,18389.5906327841,19043.7087473127,18674.6594420376,18074.3888870061,18306.6277178596,17939.7132027711,18275.833876621,18191.444980528,18988.0081138584,18715.8202651939,19223.5425020124,18837.9586209967,19367.2525059755,19737.457418324,18976.700293,18706.8577084955,18539.6220734959,17638.5694175503,18106.0482882053,17539.356309207,14378.1722598119,17782.5327096022,18111.445030968,18606.1148273476,18678.1183757807,17002.4666675054,18034.4705226221,17595.4405824643,20127.1204035588,19431.0356903951,18687.8874909585,15117.4253681916,5070.74614756164,4564.99202036583,17493.0418136434,17562.8346918297,18150.8122002356,20698.7635442394,19499.4169588007,19776.6306246404,19426.7066242208,19266.1098982145,18993.7510283812,5301.79427263303,5537.82868628941,5050.30250721118,17780.8648339634,19017.026039192,18950.0649344524,19225.010252769,19220.838805652,18895.7918041105,18604.6864143206,15794.4682580943,19857.8396953928
,77.5,17372.2539166257,18258.0278905572,18873.6686855407,18324.9601816495,18436.6431858307,18022.2098924989,18220.2081324838,17359.8987731553,18140.8744402105,17609.9468714789,15366.5138525553,17141.716922227,18226.6230753305,18699.8447295828,19085.8477189925,18884.609581358,18766.8042117238,18893.5538148924,18377.0314050462,17877.249969292,18536.4268222295,17499.114245444,17877.7357487466,17496.6454770489,18883.8538908632,19301.6871337339,19084.8648236993,18359.3654253824,19062.568445298,18842.2207439504,17758.4356637679,18292.2178282927,18298.3269010681,18418.4999243495,18509.6617768379,17880.5959658771,18446.7517638153,18299.9561245313,18692.2043668981,17659.0855452737,18222.0541974653,18179.5572080783,18819.2736232716,18451.430166807,17840.9445053279,18084.4734843948,17726.9619241907,18062.1144940006,17951.7033719453,18733.4374217651,18468.7836331837,18986.9874186131,18605.1949062571,19132.6484606068,19519.2580762927,18765.5339544877,18497.4881011105,18294.3783511344,17410.0892975578,17869.4310715072,17299.2415136012,14136.314405495,17531.8840085282,17898.9631513898,18388.2100366697,18457.2662999995,16732.8801452766,17759.0219106856,17327.991616064,19887.1550936789,19203.5598178167,18506.4795722919,14882.4307986046,5038.25872007221,4552.14986845655,17241.9521712113,17307.0137006426,17890.5075891658,20453.4893810903,19271.8446849069,19539.8088813441,19193.5083563959,19037.0392421591,18844.5083908567,5261.1294004271,5485.55182339076,5014.01524876718,17569.1812804573,18781.7042708847,18720.0893725793,18990.9041232214,18985.2796055163,18663.7846836107,18390.4311444694,15633.5931739839,19633.860575661
,78,17153.7664986037,18028.6626123186,18637.5131045709,18099.7993184422,18222.2767150889,17800.8574651067,17998.508859236,17157.1965483372,17928.05029496,17404.8840915979,15191.2823939369,16953.7754881168,18067.6728254338,18459.4036038157,18844.4392495989,18636.1583296119,18549.4139490606,18646.1490527078,18152.8586019213,17650.4903569149,18308.5901310327,17289.0177906503,17679.6258415639,17301.0626742317,18647.8486470816,19053.4448013499,18834.751108554,18120.1717953437,18813.5975487597,18593.8692775669,17558.3899270316,18070.340637521,18079.5449029554,18189.2989846256,18283.3074004087,17721.0917259757,18211.3947023658,18063.7463533621,18451.5816422675,17449.59752429,18010.7785040324,17968.6517927439,18594.5315524304,18226.8567909931,17607.688830022,17857.245078002,17510.3080272551,17845.6465019736,17714.1172042177,18480.5066658495,18224.4873862941,18750.4919997467,18371.4246208386,18898.5940876791,19298.0492607113,18550.2068413882,18284.6631377014,18048.5258587282,17183.5669912051,17632.6144506441,17060.0381227503,13897.0633083249,17282.1016182774,17683.438167233,18168.2421241725,18234.3563891615,16466.0615210843,17484.9366725494,17063.9292450607,19647.388621244,18976.643671909,18307.9946096703,14650.3881812614,5006.24801518779,4539.83673338026,16990.9964766837,17052.8813142034,17632.2553585742,20207.5820282783,19041.9781575389,19301.5852367552,18958.5417996419,18807.9306516605,18703.9917254346,5218.43114407726,5436.97441616287,4974.67657178194,17357.9590229579,18544.9148811642,18490.3675260625,18758.1956291953,18750.766049306,18431.0101779612,18175.7338197107,15472.9308647018,19408.2824946877
,78.5,16935.1927364395,17799.847664575,18403.9367047024,17876.7493573832,18007.0822363077,17580.0620725551,17775.6980125716,16953.9847579294,17714.2278487625,17196.0875616756,15013.7784102945,16763.0275218806,17919.770852152,18219.9820569836,18604.541636972,18387.686572772,18318.1889110948,18398.9957296576,17929.3531469049,17422.9645790737,18079.6723868324,17073.4683999621,17477.4002023497,17103.262432742,18412.2449692857,18806.9506204569,18588.1881898425,17880.9582231262,18565.014903943,18345.2029698472,17358.6509974207,17844.0440512035,17860.4454290698,17957.4306555659,18054.6274033012,17570.3582265282,17979.0412735336,17828.6919408925,18212.2417173248,17235.5022513688,17795.6842050489,17754.0216093582,18368.5616628916,18001.970661771,17372.0413692221,17625.0380914861,17287.7365904466,17622.5860182183,17479.7392515799,18230.5559803251,17982.6525673435,18514.1738591867,18137.1506293662,18664.6297733471,19074.4174751511,18331.4234135295,18067.5487480193,17805.6987159002,16957.9829111068,17396.482588536,16821.4383969289,13661.7480616216,17034.4565068737,17465.7491603633,17943.5848428364,18009.51647224,16203.0606349824,17214.8560963765,16802.9419436315,19407.7642064374,18748.3489283421,18096.6851738086,14420.1892741662,4975.04574368119,4527.5038002226,16742.9448406164,16800.3364122237,17374.6928838149,19961.6223135036,18810.7942087884,19063.7864902279,18721.8726829357,18578.1543144567,18542.979071157,5172.13359632041,5391.18510866998,4930.31916700854,17147.4695803088,18311.1687830587,18260.9818272607,18527.0667441576,18517.932345414,18200.9461142897,17961.2410636064,15310.0851490103,19182.4637966313
,79,16718.490012375,17573.5872713193,18170.982219356,17653.1410035499,17791.2071905714,17359.8967601024,17551.6942903057,16750.8142114839,17498.2960320512,16982.0777565849,14832.5834457933,16568.3736705342,17779.0841535182,17982.7090767215,18367.5499127458,18139.6130359074,18076.8876430221,18152.6841787843,17703.7384098685,17193.8026829599,17848.8477580143,16854.2374157863,17270.3153297617,16906.3265847085,18176.6698908082,18562.5868170431,18342.4056388146,17640.4325801748,18315.1961951587,18095.0993878066,17165.4865198359,17614.6811415463,17637.9977212006,17723.3127783439,17824.8097396235,17423.6876161082,17746.3304439194,17595.2801301078,17974.502890012,17016.9307108841,17575.7240750127,17536.7086711769,18140.6099997141,17774.4602061767,17132.9302229162,17387.2707357684,17059.0032344139,17396.542230091,17248.6180763078,17982.526772228,17743.7525093675,18277.2611619203,17901.564807478,18429.9449174841,18848.0845664776,18108.8118306927,17845.2751086638,17565.7890735375,16733.8069414885,17162.6874797086,16583.8484755734,13429.6674555129,16789.1595876587,17243.0389551091,17715.5571362843,17781.5230868782,15943.4643973347,16947.1776206746,16547.9152600817,19168.812759353,18519.7322829491,17878.0963728045,14192.1566732203,4944.13645045208,4515.75762077046,16494.3700054366,16548.9431938919,17117.8277850627,19712.1676816518,18577.6867814371,18825.6716243791,18486.0156487422,18350.1614802882,18364.825405133,5121.24924631933,5347.55770475935,4880.50857815478,16936.4097901453,18079.5199638468,18032.4858798674,18293.0812359898,18285.4746610336,17972.0138446823,17745.5432301633,15146.3077685265,18955.1579691444
,79.5,16503.3405826042,17348.7982631558,17939.0959086846,17430.0863026509,17577.0096844421,17138.3915308345,17326.1112406754,16548.4913411713,17279.60315946,16764.5472478843,14648.0657586163,16368.8357701944,17638.5691443172,17745.8759751042,18131.8891983415,17892.5299820199,17836.1662070782,17906.4216845487,17474.8598389216,16961.6152131406,17614.1167387653,16631.254708316,17057.4173239861,16720.4292649002,17941.1495074274,18320.0050612036,18099.1575418442,17395.3375472385,18060.5917056747,17841.5902107868,16981.7762771801,17380.7913065477,17412.7437216018,17483.6247234845,17592.1446050759,17254.2438628709,17514.8634422628,17363.2221583194,17737.1962755042,16794.7462975395,17348.6227256579,17313.5018318562,17910.6243719583,17546.8178160778,16887.4533256462,17145.3800139695,16825.3360338736,17166.1711759683,17019.2998035311,17735.7029001154,17505.9476847788,18038.3137771771,17665.9150273426,18193.8958766176,18618.4938767372,17881.3249864573,17618.7762939406,17328.3529825356,16508.6233973,16929.3718496134,16346.5528986037,13200.5382434127,16546.5980492083,17015.3994116844,17481.5253461582,17546.5566841877,15685.5022273676,16681.4177447037,16294.6586426422,18927.9391345006,18289.4420291246,17658.6842184341,13965.6644955341,4913.75556176569,4504.71331580094,16245.0227881384,16297.9451142489,16859.9810826521,19460.6057118492,18342.9984469769,18586.6915362858,18253.136225118,18120.8266131791,18167.8583005013,5067.32681479147,5305.27446574345,4826.26282373209,16721.8739574243,17847.461003587,17803.0814957147,18060.3703583036,18052.9659596791,17744.5937794248,17528.8605115263,14981.8088807662,18724.1968231836
,80,16291.8221032956,17127.6288711999,17709.3243354717,17208.125571042,17363.376081276,16917.6137225014,17100.4956719273,16345.7566777508,17060.0026847812,16541.737382195,14461.6422760349,16165.7958280674,17475.7394214215,17510.5526810141,17898.6790413145,17647.2498876167,17596.4586240523,17660.6635760695,17242.4374605443,16723.6570795991,17373.834809641,16402.3256091271,16837.4757778202,16539.6321571828,17704.6832805855,18079.6215898946,17857.7323593188,17144.3519815026,17798.5695070654,17584.1511823159,16805.9021136061,17141.1683021086,17181.7245270766,17239.4308052859,17354.9877546849,17066.392635443,17283.8129455589,17132.5346820657,17503.0842182291,16565.3919081124,17114.1468969187,17082.7504912817,17675.3759593271,17316.3997365004,16634.4733897213,16896.6579233541,16584.8393335141,16930.3279061088,16790.71757647,17489.5217991426,17268.9854509097,17794.6460742256,17426.2407845731,17954.3270293532,18381.9184843913,17647.8693539517,17386.5821586519,17092.0452620417,16283.3042460983,16695.9436171606,16111.0681406759,12974.0469117793,16305.344551094,16780.7399697996,17239.7615836974,17306.4345630089,15428.7374538782,16418.3382312876,16043.7221830759,18685.7807873586,18057.3910449062,17436.5944051668,13741.3025494439,4883.42704498821,4494.19373400626,15994.9340453358,16047.7456173261,16601.6780434402,19207.3999501064,18108.893438967,18348.2193811689,18018.3436388945,17893.5346759301,17954.1773820455,5012.08669413576,5264.49576299855,4769.95517720019,16505.972454299,17615.9339085046,17573.7062668654,17828.7003439042,17818.7614121332,17516.5116858703,17310.9572440638,14813.9985490487,18491.6150800322
,80.5,16083.6529170144,16905.7245082331,17481.846719532,16985.9729892998,17150.3395045621,16698.568163389,16875.4757698229,16140.5250819762,16839.8082578173,16314.4065520309,14271.7178088106,15957.7200566753,17291.2605949863,17276.9918714666,17665.0328640988,17402.5612958265,17357.1967186811,17416.4732571173,17003.9024129266,16481.9693816679,17128.5434741297,16166.292435088,16608.7951233826,16360.5130138672,17469.969467598,17840.0350379246,17618.008742544,16887.1982649357,17527.864829438,17322.4277063524,16634.6264573754,16894.5342854743,16943.5688337044,16989.1506386057,17115.0200060508,16860.3922027292,17054.0324814639,16902.649058043,17270.5144207337,16327.3950563801,16870.8572271493,16841.8665041842,17435.8908265222,17079.6122396612,16370.5449891398,16641.3195722515,16337.1920466138,16687.7748944025,16562.263802072,17244.6297950045,17033.5508094378,17545.7499970614,17182.7897429828,17709.360048847,18139.9898685412,17409.3073989205,17147.9655982516,16856.3954740996,16058.3786738,16463.2822123315,15876.386321259,12749.878171825,16066.1706736573,16539.9806289419,16990.4897996411,17059.0577448663,15175.1516410129,16158.2479657953,15795.7278163468,18442.2663243703,17825.5925358654,17215.5331792735,13517.0566760278,4854.24717280823,4483.61451765297,15743.8475208155,15796.6192805691,16340.5449562834,18951.8795101122,17875.5406655752,18109.1055105739,17785.7570471388,17666.7003883306,17726.5787137117,4958.81585919021,5224.88745973946,4716.24417963861,16289.7865920615,17385.7482244409,17344.348562656,17598.0459762128,17583.3760986114,17289.1217121928,17091.2920907689,14642.4460934701,18256.0151495555
,81,15877.5147585063,16685.2195116973,17254.6624582319,16762.2620957864,16937.8511292838,16479.7882921014,16650.7608327693,15935.4554816742,16618.175991353,16083.7080802297,14077.944897651,15746.3995766444,17088.4584464866,17045.1838699248,17432.6464849997,17157.5683136212,17116.9996429197,17171.9579536185,16758.068916176,16234.6664428573,16878.2545012401,15924.5072718305,16374.7486356276,16180.9336981993,17236.8892992282,17601.2926564838,17379.2730468357,16624.6178438612,17247.9533789876,17055.5039025292,16462.5576091703,16641.3134064971,16695.715799867,16733.5578393909,16870.0575999437,16634.3990743236,16825.5631070455,16674.6818184331,17038.6773043361,16078.7144127166,16615.4970024036,16590.5900859254,17192.1368168384,16835.6683737962,16092.9727518585,16379.9409279947,16085.3925696996,16439.8852268954,16334.4213212961,16999.4444285287,16799.4757067945,17290.7545770381,16934.6794747986,17458.1681651435,17891.733613811,17165.1796552225,16901.6096779947,16619.4776137881,15834.6635240786,16229.7521638881,15641.891855187,12527.2145676147,15828.1132459094,16288.8257334239,16733.564019884,16802.1095269679,14924.0642342328,15899.5481762498,15549.6521980731,18197.2120187457,17595.4458430103,16991.640816515,13295.1793439696,4826.06066269052,4473.69373270563,15489.2665921185,15545.9890246239,16079.0357278081,18692.9141026932,17641.66697484,17868.6093111765,17554.2432882567,17441.2285857196,17500.3525984287,4910.70183498613,5186.48043293665,4669.04564515295,16073.0115176115,17155.4580990904,17113.9603106319,17367.8967136221,17349.2522888271,17059.1981970906,16868.660711937,14469.0771891054,18015.4793487461
,81.5,15672.5760460687,16466.6784677835,17029.7149649265,16539.237798294,16725.1473902086,16261.0064117456,16425.1990930335,15728.2808467158,16395.4598661006,15851.871031543,13881.0847479003,15531.9351641235,16869.7980140541,16814.1441513242,17199.7048136712,16912.7013730749,16876.8274556376,16927.1143322014,16507.6194240036,15984.823162543,16624.5241345384,15676.2577810114,16133.4973368535,15992.4645411148,17004.5037282357,17363.4493889164,17140.5966539528,16357.164691275,16962.6939586174,16784.7815759375,16277.3581607199,16378.8635890102,16440.2443875024,16473.3884943589,16618.8235585575,16392.5390706651,16600.1639715015,16447.4913147565,16807.2647043593,15817.0379959193,16347.3484500535,16325.7208482132,16943.9158165502,16585.6849225375,15801.2396138865,16111.8462686848,15827.7657805944,16182.7041615701,16106.2243601493,16756.7644341142,16566.0878355885,17028.1361240743,16679.5327651874,17199.6399270333,17636.2718448225,16915.2620728427,16649.2019652246,16381.8966062904,15611.2750257265,15996.3408403584,15407.3399709255,12306.6900488022,15591.2495958288,16028.2313064397,16467.5052139215,16536.2721976484,14673.0070055025,15643.8369377313,15301.904155102,17949.8180043275,17364.4318182541,16768.3324708483,13074.5716661308,4799.15461682613,4463.84832503546,15235.322864915,15296.2181221586,15817.8527241295,18434.7131009558,17408.8396141897,17626.5956171335,17321.6208712327,17216.6983498434,17272.2707494482,4870.1522679114,5149.25231732921,4630.21378889528,15856.7522291294,16924.8194149258,16884.1128571395,17141.4737215216,17114.6221380992,16830.1635765618,16641.58185403,14292.5910811039,17769.8183191028
,82,15471.7583952729,16251.2393346677,16806.8447401693,16316.3388900819,16510.8425663838,16043.3680945697,16199.3342013188,15518.5284696047,16171.8858322267,15617.1680522397,13682.9951440735,15316.3832620719,16640.2461696643,16585.1151213764,16967.7382205719,16667.3700266553,16636.5940736853,16683.0515439914,16257.2365981136,15733.5454259147,16371.7556602694,15420.0908103706,15885.7782274757,15777.4005300217,16772.4519016011,17128.3833646016,16902.0239812145,16090.8022432935,16676.2617167117,16515.0415401508,16066.5298638054,16108.1587273084,16177.1065503653,16210.9890292421,16363.1403313227,16148.5119473398,16376.7112446063,16221.8692816389,16578.8576940055,15541.5606728316,16066.3718787723,16048.1577281733,16688.4127998626,16328.4647059306,15498.0870349406,15837.1086222351,15563.8669006152,15919.93362548,15879.273301982,16515.6047687102,16335.1561654864,16758.5159149117,16416.4184374071,16935.1531722815,17373.7944793937,16659.7905555356,16390.0180539611,16141.3913404892,15388.6315949559,15762.5147570384,15174.3355914825,12088.5483656586,15354.5737882622,15759.5947830036,16194.6363332219,16263.0479514374,14424.884315542,15391.5198980206,15055.7713267926,17703.1395728224,17133.5857031555,16545.0612109396,12856.2519282061,4773.44385001276,4453.83150026624,14983.0112886403,15047.0693174399,15557.4162750469,18174.3720489514,17176.2429559301,17384.1408879861,17087.1914072249,16993.8112417855,17045.5083351698,4836.45557043769,5113.15336950198,4599.31538205566,15642.9561267346,16694.6329820369,16655.3624417909,16914.057550214,16880.6350376285,16600.5331830181,16407.876066327,14113.5338154258,17520.9966458444
,82.5,15273.2986709164,16034.2619715645,16585.4049265078,16091.651641652,16294.332227896,15826.2985543336,15971.4176216774,15307.6568512941,15946.2420362255,15380.7356527639,13479.6820815912,15096.3776791536,16410.9628464312,16357.1417629799,16735.4695597327,16419.845519802,16395.9066082615,16439.4135650649,16008.3019758015,15483.6727790813,16121.6294268655,15156.4874974715,15632.2681322438,15537.9978021457,16542.3934324714,16894.7392982429,16663.1416843002,15827.4808463825,16392.1761942008,16246.6876364094,15830.6282268543,15830.723779564,15908.1179328934,15944.4249482941,16103.7453766593,15898.865804699,16155.1051251548,15997.3844190286,16350.3324324237,15254.3417242449,15773.3450904848,15759.588513638,16429.5810766111,16065.8666128012,15184.2117076695,15553.704934269,15293.2638647034,15651.5847233449,15654.1964262347,16276.2107418993,16106.5091527313,16484.3545721867,16150.5507473908,16665.9092084481,17107.3196643966,16400.537767731,16124.9656979291,15899.0265291048,15164.6936619913,15527.0704119905,14942.1891919521,11872.0284522964,15121.1212387469,15483.9221210434,15915.3011671679,15984.1949126646,14179.8608529853,15140.8811243438,14809.6949737032,17454.3095216226,16903.7783870926,16323.1552232369,12640.0994402075,4748.81009362477,4443.82962938281,14733.2195163442,14797.199955384,15298.2242780284,17914.1368363777,16942.2493741785,17139.8905820229,16854.6296168508,16771.7549652634,16820.5326748962,4808.35565076979,5078.41150847402,4574.66167356278,15429.4097582637,16463.6460408972,16427.3034740917,16685.7548511673,16648.2269906724,16371.6178173503,16165.9533581255,13930.7398204307,17266.0249282937
,83,15076.4975481661,15819.851693102,16364.2156936889,15867.4314673834,16074.7721403378,15606.7683400118,15738.4782337738,15094.3523341022,15718.5864348813,15138.5602709496,13269.9198732379,14871.293442555,16182.9086227123,16131.2523160029,16505.0076586293,16171.6320538465,16152.8197497108,16193.9362441984,15760.6904574761,15235.9674922288,15876.4817175184,14886.4880662374,15373.2185078474,15273.746529441,16311.439203789,16662.6032116191,16425.734829071,15568.1905812186,16111.491603794,15981.7327760664,15573.9554797729,15548.2339208482,15635.6909987923,15673.6028251324,15838.7702075181,15644.0723363795,15934.9608535443,15775.2103287766,16122.6963728732,14958.54468392,15471.7534330727,15463.0103820696,16168.4673369678,15801.4596100483,14863.1974647418,15261.6865787962,15016.2062097043,15373.6691925353,15430.1728406237,16036.8251678605,15877.8920265743,16206.1536176109,15881.0026515792,16394.2162398759,16837.5892966411,16139.0646655666,15856.1815050842,15653.9545995689,14936.402572017,15290.031207295,14711.4146461195,11657.145304518,14888.5392614344,15205.0752534223,15631.8946894936,15701.8859936456,13935.587908689,14891.5622463145,14563.0142503751,17204.3453484856,16673.1346514733,16100.2955689089,12426.5092771121,4724.24490861136,4434.69889579781,14484.2710907699,14547.9479964535,15040.5313636626,17653.347472543,16706.6715112493,16895.1263157144,16621.7143960974,16550.6921918189,16594.762233635,4783.86890186538,5044.28149208708,4553.24398348425,15214.1060489746,16232.3375061454,16199.3611213915,16455.882931923,16416.4849122959,16142.1128216784,15915.6742362011,13743.7267940579,17003.3892450958
,83.5,14884.0095139773,15606.9955074136,16143.8318814871,15642.8692169219,15852.9571325847,15385.7737704444,15498.5422367167,14876.6306326539,15488.1498272937,14886.2840781151,13051.2048408339,14638.1751700097,15954.9290704814,15906.8857954843,16274.5554593228,15923.2865330445,15908.6826181807,15947.129652958,15516.2710416901,14992.1206420611,15635.6994302685,14605.4673310585,15104.4271121857,14988.4607258664,16081.1279496859,16432.0956951824,16189.8746559101,15312.3329456984,15837.5181767886,15721.8052944096,15302.3986044584,15261.7215802084,15363.1077896467,15396.8210087843,15567.6414681581,15384.7930932704,15714.4484556743,15552.5154060046,15896.8362964164,14660.0592727979,15166.7400629739,15162.6426006683,15904.2777841103,15534.0446338585,14542.2166327905,14959.138958081,14728.8795541573,15086.9271291785,15205.2902944817,15798.9998903995,15650.0735981103,15925.5946159786,15609.8027632055,16119.921112968,16565.1629115151,15875.129400897,15585.5763393905,15402.8210235377,14700.8690980988,15048.9713053614,14482.3176559477,11443.5442827044,14656.5217147789,14927.130619779,15349.065088605,15420.7290101571,13689.0360015011,14640.6670163712,14314.2120477154,16953.3456028354,16441.570548377,15877.4657393526,12213.3617644167,4700.10568259463,4425.34117685059,14235.5908160028,14297.3001489258,14781.5600820326,17392.7405824661,16471.2414470954,16648.9688124568,16390.305733725,16330.2773048769,16369.8856858946,4761.4163631247,5011.0667848146,4532.86918327146,14996.8425443698,16001.5621695406,15972.1708456714,16224.7961458914,16180.3870376172,15912.4999096834,15656.3519469255,13549.3486509624,16732.7974192946
,84,14695.131282674,15394.6145316317,15923.7678298333,15416.680093925,15628.8598274812,15161.5631744442,15250.7620715478,14653.6557355046,15253.0859405953,14620.5323799414,12821.2715112808,14394.5687695507,15726.2872776879,15683.1279484964,16045.9759591884,15671.7752353676,15662.7717368909,15698.9141743187,15273.5284331738,14749.9153193328,15398.6203397179,14312.3062063452,14825.5931316167,14684.5578060937,15850.5147914215,16202.3369647663,15956.5318342456,15060.7936538806,15568.3455709832,15466.1400692168,15022.9578747902,14975.9387946367,15090.8117568027,15109.0451997559,15287.4101540294,15117.3389950717,15493.199005793,15329.8537380533,15672.060808886,14363.5473377946,14863.267137894,14862.7354500787,15636.3950501265,15264.5284372728,14224.6371901421,14646.6564812145,14430.5061942978,14791.2372609083,14980.4058977692,15559.2526400456,15422.5416686578,15644.9428590039,15338.7117753905,15844.9855426316,16290.8444755718,15608.9277742144,15311.4823122489,15140.8885477451,14453.3185299329,14796.9734531909,14253.7288348732,11229.7116989422,14424.7873530382,14652.4824211032,15069.5389233773,15140.8047711307,13434.5533123659,14381.2773243681,14057.0998799695,16701.2373879583,16208.9282305112,15653.5931374642,12000.6105805837,4676.12557551372,4416.31999970897,13981.1552694238,14039.6643361354,14515.6787483433,17129.3117682919,16233.1423242875,16401.8539950099,16159.2937744326,16109.8651101851,16145.5017242542,4738.44987618101,4978.64298277381,4512.00306082886,14778.9779773832,15770.8379670306,15745.0222696957,15989.332256463,15940.4994647661,15679.0220758783,15385.1403431047,13345.5183747781,16451.0447198178
,84.5,14509.627888891,15180.9684730495,15703.1346087934,15187.8922329184,15403.3475076496,14935.5174236551,14992.6163935049,14425.3739568955,15011.6276076667,14340.8569618319,12577.8881084299,14137.9042122454,15497.0646400938,15458.841265067,15816.7675149486,15417.1722587804,15413.7022920816,15448.2369302975,15028.499228144,14508.2244034318,15161.2763479215,14006.8700623191,14533.7261074366,14366.6071824501,15619.1859890731,15969.8502904409,15723.6654879741,14810.0288951449,15301.3439107553,15211.2711391803,14743.9344335103,14690.5960606479,14819.0839295463,14806.7453438037,14994.2311381213,14838.3752885937,15269.3499270831,15105.2649748144,15445.2575713899,14071.6400401378,14564.2241873891,14566.5662640773,15366.8668552118,14993.933343875,13911.9174588992,14319.6837668667,14119.2806546201,14482.136518777,14752.9786094671,15317.7041865882,15193.5521534427,15365.0732740816,15068.5902140109,15569.4464819232,16011.1194135683,15339.7316826753,15034.0808528912,14866.6946191921,14191.6321087767,14531.2553171597,14023.6887844719,11013.7305752308,14191.1551270219,14379.6781176548,14792.5294095305,14862.7190490779,13156.4715397883,14098.1768399208,13775.2066841003,16445.6711356037,15975.6247759871,15427.1648775977,11786.1091693041,4651.9500515001,4407.49476155284,13712.7476433608,13768.139887462,14236.5231928158,16863.1495189894,15991.2999861779,16150.9178611507,15926.0708350194,15887.9621842975,15919.0465694723,4715.33184970531,4946.59369563547,4490.82663379678,14559.2062056441,15539.8993465555,15514.8360603103,15748.6215833645,15695.5058278869,15439.9731235206,15099.5787645197,13128.6472679092,16153.5358276628
,85,14328.2958941658,14967.5884386222,15479.9243787481,14957.1202521838,15175.198231085,14705.9091908474,14723.8404080669,14188.826559139,14763.3418150468,14044.8415818083,12321.8763461356,13873.2078934253,15265.6818925068,15232.6446973848,15586.7169983778,15160.285989899,15160.7003224129,15194.3084941936,14778.91986525,14265.315326742,14921.1094533867,13684.3423919185,14227.4545363096,14032.6368931436,15384.3114135418,15735.2721442262,15489.3193504206,14557.7219782477,15035.1445327943,14956.257088674,14466.7677639782,14403.9787945444,14545.9488013423,14488.5171556774,14684.0165323003,14546.1795765734,15042.4291017332,14876.6929804071,15215.7678677382,13782.5770838064,14267.1178999982,14272.9469060873,15093.1867783896,14721.1061347155,13604.5353564585,13977.5483399613,13792.7417947673,14158.9236452719,14519.7007108446,15071.729355179,14960.7309709564,15084.5034645564,14795.4963703764,15292.6339260609,15724.1679799713,15064.5161826366,14750.8330934264,14577.2608980598,13915.3925683812,14251.3108909221,13787.2968310134,10793.411911482,13949.7592105488,14108.0694284129,14517.6117767615,14582.3985486258,12825.0689772496,13765.2634634595,13445.45432982,16186.8551200863,15738.8570599081,15197.3151590999,11567.7708413304,4627.80040223342,4398.850126491,13419.6246715724,13473.4923473729,13933.8324282885,16592.5361084577,15745.8734951293,15896.6027862652,15687.7424874839,15662.2436741293,15688.0775138809,4692.19782081114,4913.95088274853,4469.86697766211,14338.2553826552,15308.598524823,15281.5447576508,15501.8906804744,15442.6032048259,15193.853803765,14799.4937537117,12899.1936741816,15840.885913479
,85.5,14151.4723995705,14748.8714094757,15253.0738046219,14720.7806388121,14945.0429894023,14474.4157221922,14446.0435090986,13945.3699674241,14505.6145873869,13735.6477238661,12053.0035434625,13600.9686292248,15029.8053315008,15000.79133387,15352.4512678012,14898.1018114385,14904.7234618105,14938.6289509441,14523.5802318482,14016.2657081642,14673.5870236555,13334.4146540973,13901.1691973212,13685.0513156947,15144.5809284555,15495.3891206368,15249.4968378519,14302.1530845207,14766.5434725442,14697.678159938,14187.0682103187,14113.0429119313,14269.1360264057,14148.7866387867,14352.047115391,14234.8147920598,14808.7587771822,14640.590112401,14979.2426449779,13493.2954829425,13968.8871862194,13978.5830909133,14810.5162443945,14440.382747994,13299.4144596336,13607.1697357004,13441.1398122432,13821.9067582662,14277.5152638111,14818.6310795937,14720.5485249569,14802.1593282869,14519.890759738,15011.1461902236,15427.2640251854,14779.2698665502,14458.7810565429,14272.5954887812,13624.68099532,13955.0172904824,13540.2712607146,10565.9579567153,13698.002566269,13831.5174638195,14240.6072410182,14296.9059790944,12413.1201838834,13361.5685073485,13046.243068018,15924.3764923436,15497.7745988937,14963.1165033292,11340.6395656428,4603.69887662115,4389.85024964637,13100.2157780476,13150.0758565819,13605.1028234405,16315.2937168944,15496.42271552,15636.9992826448,15444.4405991282,15431.4352054774,15452.2324477501,4668.4178491949,4881.22752870381,4449.54039598879,14114.9220965096,15074.720607116,15044.4699602438,15246.8200560068,15180.3728717247,14938.9008706245,14483.5363422682,12656.8754283617,15513.8771746131
,86,13983.4395640068,14522.2708430631,15019.6488638026,14479.2200090262,14710.6833858554,14239.0870530548,14159.5110226093,13693.9049405753,14239.1682512901,13408.7924871948,11762.2073104688,13316.6752276385,14785.597567761,14759.6751151247,15111.024111885,14629.4598227367,14642.530779938,14679.0563058345,14260.6482623405,13758.7914229513,14418.7657573378,12943.4330825899,13547.8819875481,13320.2501147673,14894.5877993028,15244.9562908374,14999.2098611763,14040.8492653747,14490.1639428391,14432.876350989,13901.4449009653,13815.4017614414,13984.7117807877,13775.4793063289,13986.5849654339,13896.5821778336,14565.3406469416,14394.0318951982,14730.0058994507,13198.0464471692,13664.65782809,13678.6244015898,14517.6935763101,14152.0540490949,12988.8778363956,13183.1800793495,13043.8152802842,13458.745429111,14022.7865558609,14551.6004090374,14465.9344404455,14515.4015516073,14238.8023145979,14723.6379289103,15116.7560191704,14480.7999293695,14154.6966008333,13952.5888831977,13318.5170499893,13642.7937121536,13276.0278019883,10325.3961000458,13429.4903719873,13545.8572670022,13955.5037208492,14001.1554218856,11908.4072129095,12878.9081986004,12568.4294439707,15655.8648832229,15250.3913623121,14724.736412076,11100.1689892405,4578.73700933726,4381.05722888648,12753.4863387231,12796.2709349553,13249.0200632429,16029.4525415534,15238.7991127914,15370.145457869,15191.6436079911,15193.216048306,15207.463243102,4643.32484508904,4847.89775763099,4429.9182112959,13888.1939538348,14833.9948220954,14802.2108125751,14979.9130684612,14905.8669431982,14672.1762264253,14151.2546448953,12404.3321382006,15174.3337858163
,86.5,13817.3331604607,14281.4790675848,14772.7531635268,14229.7169838311,14469.9351658735,13999.1934134498,13866.7146090443,13436.0607434318,13964.5078852978,13048.5440676869,11442.9842766086,13007.9316953002,14527.2209754426,14503.2471214991,14853.3633013967,14353.9273473201,14371.9220424684,14413.4730292684,13985.5744152003,13490.0976808389,14151.9773400648,12469.8256260074,13144.9007763976,12934.6079147059,14629.5194146585,14977.0466167756,14731.6930612624,13769.9850717927,14203.6224706852,14158.8833345055,13603.8121786145,13502.8178763848,13686.5356287326,13341.9217934872,13560.28592447,13514.5854566202,14304.0910158708,14128.0152369873,14461.018585946,12891.1554311742,13348.17231509,13367.8903143783,14212.031237659,13851.9792741521,12666.7836418729,12645.5441806208,12551.0892013907,13045.6960531746,13745.748199065,14262.8473222028,14189.3874102487,14220.7279726633,13950.4782966403,14427.0112180756,14787.506027977,14164.5687928894,13834.1938420274,13616.7179084735,12996.4682330949,13315.8715992851,12985.0509640281,10063.862016241,13133.312649615,13244.1927551327,13656.079924883,13690.5439616523,11316.3603337818,12321.6424054518,12019.2765468836,15378.7269824867,14996.5113420861,14479.206047346,10838.0266426283,4552.73445870682,4372.22454029958,12381.8309833975,12416.3066903238,12869.3276560159,15733.5770771091,14972.0137279346,15093.4634947219,14928.9407466439,14943.9256841459,14952.8631048758,4617.9845813828,4813.71666652499,4410.94228132021,13652.818312015,14585.1575372064,14549.8717858631,14694.7310521063,14611.502874802,14387.3293508477,13806.6365750517,12143.2596479426,14826.321001877
,87,13638.4826316674,14018.5874838261,14503.8936945002,13970.8067824393,14217.5805107752,13748.828033077,13566.9742849489,13169.1934693408,13681.7896553952,12642.8701637597,11079.8849726011,12664.4832350355,14244.8270431311,14223.5472937672,14571.7139812459,14066.5277427296,14088.8812825401,14138.9166039563,13692.6833469383,13202.0271122167,13864.9352289982,11869.0097053015,12649.1156307575,12515.8178828544,14338.7151625889,14683.1214521107,14437.6711433592,13485.6951666366,13903.0680951575,13872.0017766124,13283.8583698629,13167.0862938833,13365.1603355147,12809.4757302343,13032.8744516475,13052.6979117719,14017.5290613318,13833.3014298238,14163.3121612731,12565.6375177461,13011.5450357296,13036.8947855609,13886.2257379762,13530.979949467,12323.2564681656,11951.6111252232,11915.3039966929,12532.7046740998,13436.9019478928,13940.6133622166,13879.7620891522,13913.0300556819,13649.5916443965,14115.9238032635,14430.6318339969,13820.3349970636,13486.1889420854,13260.1378105482,12653.6837896473,12972.1731238611,12656.3705486266,9769.90710002972,12799.0836405198,12921.5109457695,13335.0914416687,13357.4863790234,10655.6579999278,11707.9010245381,11417.8742613673,15090.2749533269,14729.0930008832,14223.8090544707,10543.5947929536,4526.07110391214,4363.37630641001,11990.785425067,12014.7461549589,12469.8830581116,15421.1942915375,14691.3729800658,14801.6676679327,14653.1414193958,14679.6952286247,14685.6872377156,4591.50759027019,4779.18297132232,4392.194784922,13405.2801202399,14324.4351798152,14285.8709743153,14378.4302310063,14279.0050266753,14070.2661053,13443.1707346764,11870.4391208793,14465.1321090542
,87.5,13432.9438961966,13724.9715542052,14204.5946489166,13689.0246155091,13942.8076081974,13476.9054305813,13247.936409604,12882.1381865628,13378.0043338997,12163.8771030062,10653.0214703254,12248.5221744349,13928.9954967447,13910.9818283312,14254.8947438616,13748.4759487821,13776.7953105876,13837.7789357907,13366.520033116,12878.1527474647,13541.5390478071,11104.0985070088,12007.084513497,12029.3853893599,14012.6335758181,14350.6660667518,14107.8250740837,13176.1629814259,13571.5448016983,13559.78216116,12918.9907653369,12786.4659734878,12997.8361831934,12134.838226371,12360.7319186728,12460.6951509782,13692.5570518191,13497.9830400757,13824.4373254561,12202.7408530515,12637.0143262702,12666.9117212927,13518.1075001703,13166.4450957575,11933.5888666202,11057.7374450557,11084.7525260401,11863.5112363008,13083.2686269152,13570.9950830073,13522.7220496095,13574.835883923,13320.3217405396,13774.3734440813,14021.0065729178,13423.9158112087,13088.027640728,12869.2401460033,12271.3858201041,12597.3979470777,12276.9444617642,9429.50832266923,12411.7729877472,12547.0469379396,12961.8168293818,12972.335963549,9970.41793077791,11074.4605217893,10799.8504922131,14770.0446653613,14431.0715815974,13941.8578774039,10201.4325189969,4498.03585020258,4354.01426559166,11581.640260104,11594.8699667322,12053.2232544633,15065.4031501182,14370.4426544384,14469.1293938711,14347.7626767664,14385.5127354224,14390.9803117,4563.02520690647,4744.56801568818,4372.9518996613,13128.7840563086,14033.2210957204,13990.893649859,13993.9618550537,13870.652791547,13683.5444031971,13037.3464401911,11572.0059119286,14069.9415633819
,88,13188.5744915683,13395.3416399618,13867.9678094715,13360.4954584863,13618.0364649986,13155.6375828199,12881.2748912931,12552.3103554743,13029.466179932,11588.3173601875,10146.1215068363,11733.9772268434,13569.9231332234,13556.3545876705,13893.3701765515,13364.6465467707,13400.0688194334,13474.4139582676,12982.9904077795,12495.8693063093,13158.1902381552,10173.1322332723,11191.7955930257,11419.6521074901,13640.1081919117,13967.429264894,13730.1156827823,12822.5232336724,13189.6713968097,13203.3778816469,12483.1118797127,12332.9605097385,12553.5009860354,11295.6656321348,11520.0373238782,11716.1006754694,13317.1313465582,13110.4997638035,13430.6777444749,11763.063050276,12182.99573678,12218.082167144,13064.3803954239,12714.1251503677,11453.7814218666,9977.980841194,10064.2443012339,10999.744067245,12671.3889545153,13140.4912247142,13103.0243745333,13169.339443214,12927.61482511,13368.8983954524,13519.1491134436,12936.4467292337,12599.0091924425,12423.7540056628,11826.2277975621,12174.6144179865,11834.6355954362,9038.99346778769,11956.8472413771,12056.8580973659,12472.17306844,12467.7938657144,9306.02535922562,10452.4530047824,10197.0153073893,14376.4296703744,14064.9417723352,13602.1548841368,9808.93212150458,4468.2239728245,4344.00468483888,11146.4151497797,11150.8322305673,11609.6517123636,14626.3079757017,13970.1146355381,14053.532086441,13983.1997276774,14034.7783615602,14045.5847423906,4534.08286806822,4709.8118592328,4353.51239868972,12793.2887586492,13679.354268126,13632.3266301972,13487.7237115221,13328.0856798339,13170.381571095,12571.8754407445,11235.9053474692,13625.0037999915
,88.5,12867.3333301714,13007.3990666163,13471.6106196963,12933.7768636402,13195.1868240675,12735.5183151582,12429.9466081242,12153.936782218,12606.342787072,10905.9340858785,9545.53716951832,11104.019482605,13141.8222338727,13131.3023190462,13458.6603996011,12851.0683919024,12903.4244924797,13001.1041834707,12518.9699935748,12029.3496184454,12689.1681920016,9104.73524900788,10204.8504220784,10672.102493888,13192.6010265399,13501.263751886,13272.0400899743,12397.6764702812,12726.2143021501,12777.3531656975,11946.0218832273,11779.0463006542,12005.6314565258,10286.0151936896,10502.3096930539,10800.5550555982,12863.2357888548,12643.8399959249,12948.6723302356,11182.2309911059,11582.8515822383,11621.8838598729,12448.3916609962,12098.6025447563,10809.0584257298,8774.4237673088,8905.20292477532,9952.26807043416,12172.3200280425,12620.6645041138,12590.0880030377,12623.6907782294,12401.2725063828,12829.2864433594,12882.4921087567,12318.1362991916,11979.2884452342,11898.0622286305,11284.7720911488,11681.7439012346,11307.2607975881,8596.12108575933,11409.7344386473,11379.8579379112,11789.598501297,11769.7676434529,8690.55860994224,9860.58887765866,9628.09465788251,13866.285020731,13589.672219286,13163.364392924,9359.18319221818,4434.42942427747,4333.70176497959,10676.2857181992,10672.3990679655,11131.0334328443,14036.2787578852,13424.6959084581,13492.0360570831,13525.7424707652,13592.8013973548,13617.7855810305,4505.30145127578,4674.83657368864,4333.74002913605,12364.8674834917,13227.1842730128,13171.4846389193,12802.2059663456,12585.4571917772,12469.1764871976,12024.5985937733,10842.4927825603,13106.3187562116
,89,12407.4842638682,12495.1308611912,12945.9772517984,12380.7843385054,12643.7624140535,12187.5631339043,11857.6525159641,11657.2062889941,12077.8222679641,10093.8336711389,8825.20593870748,10325.2177548212,12570.5639171469,12558.9919711827,12872.9702716977,12187.5446604772,12264.7211490565,12393.8037762298,11952.2994030753,11454.9540576116,12111.8025605991,7988.80318972319,9086.21307485201,9783.26215639765,12597.4731076909,12870.4951341797,12651.4265135358,11857.0374268968,12131.0032411835,12237.2122850851,11285.2624516971,11102.0298828404,11328.19791794,9158.89094033201,9359.40774260217,9731.93734081403,12264.2322408156,12031.7395776872,12303.7330921313,10428.5608554706,10798.9287057449,10842.5652704991,11614.5994050131,11271.5528734411,9994.60457872197,7578.73968095418,7721.7717475054,8775.49108853723,11528.573539017,11948.9873164411,11915.7319168605,11862.7720768398,11664.5316525516,12071.0656869634,12063.9178453606,11525.9413530653,11193.5314025407,11248.6935717801,10613.4814747828,11076.7202305844,10648.4928990055,8085.34889287596,10721.3674917357,10504.356426489,10895.5339065792,10860.2364210991,8128.60585045173,9299.03660654487,9090.68601311176,13152.7840975112,12917.0177247116,12552.1235230871,8825.22430511472,4397.60597045352,4322.92030316812,10165.6903623301,10151.6176930952,10609.6095181716,13202.5487340534,12648.0618566794,12697.1181975172,12894.8262822413,12981.9793129863,13032.154956967,4476.19467181939,4637.17373115275,4314.00105630861,11815.026173695,12643.5569321863,12577.7324065137,11861.9419181389,11587.2776655104,11517.6312417254,11340.3397341446,10356.7638590617,12459.3153879083
,89.5,11694.9339781309,11741.7754251922,12167.4988479103,11658.6194439753,11919.4577945371,11470.5063713695,11147.0059095283,11037.5105532361,11418.0026454339,9155.02219720734,8018.81701738765,9396.58533930517,11749.9617398344,11733.6041430935,12026.8364463827,11331.9538087238,11433.9228836154,11590.3272840081,11275.9310540473,10770.314028036,11417.6119536986,6928.6075828857,7934.4976954837,8780.71014957094,11754.3237002023,11976.7916993076,11773.7302293705,11188.0630304491,11390.649102349,11568.4841209215,10472.994122587,10272.8553365786,10486.6548503717,8002.65496605037,8181.52864678191,8584.2880178672,11426.9231222239,11188.3952691787,11413.4353634403,9511.01873203147,9839.62020772751,9888.62316947531,10567.3679641331,10242.5713891573,9031.20615297006,6500.40821428847,6626.44929776883,7585.52058237809,10673.1743139642,11053.3408270382,11013.6318708066,10877.6138383912,10705.8432849348,11080.4594598561,11043.5115076796,10541.1062658039,10227.6232446527,10469.8731733513,9809.95687372731,10347.5574628277,9813.77332736981,7496.33169854182,9855.76534427235,9442.45520711469,9802.84617708079,9752.65889563339,7619.9974222953,8762.27335650845,8579.56099083156,12183.2508088168,11995.3310405595,11716.268344969,8182.70423504549,4357.94865212927,4311.8366497597,9612.15585482808,9586.74830979453,10043.0246950436,12099.4550635978,11613.6210532209,11648.4730340577,12033.150896181,12144.0721475985,12234.7931199153,4447.03987861567,4591.65671692221,4294.09014806513,11090.7335642558,11871.197588444,11795.6138857477,10690.909678814,10372.9330708821,10347.6356055937,10520.6754693966,9765.62839788109,11674.9163876388
,90,10731.8465712089,10747.5861942615,11134.221448691,10736.1706123829,10987.377657766,10551.5075803253,10289.5187619208,10268.4341674361,10601.377770629,8156.06570488432,7180.08200721303,8394.19283149867,10691.1059794907,10668.479285341,10933.6633197498,10276.7689384257,10397.6678558757,10575.6219725414,10474.8553264877,9967.35212117382,10586.5350672593,6026.79776490322,6871.98132455814,7743.25583860273,10677.0100278007,10840.3990006015,10657.7237716392,10372.674370155,10502.6864378929,10743.3208964672,9527.81650121005,9318.34318635486,9512.05126974905,6925.72290654603,7079.50395355594,7475.26192955577,10370.3520593459,10138.8815105206,10305.285120971,8473.9937859351,8748.25683564926,8802.69139425858,9355.28306977851,9061.02478911016,7977.06638665312,5653.12858099229,5748.09732273552,6512.61703680319,9637.38236457109,9967.82092629837,9919.97764564261,9703.30623702139,9556.34095842128,9886.7106268527,9862.28980344202,9409.22726448358,9124.92921185352,9578.3692472689,8896.03255565314,9509.44423218014,8844.59620993586,6869.98115549501,8858.575532114,8260.50435757556,8577.40421016994,8515.0994325695,7158.52655854304,8236.71210364365,8082.67066024889,10972.0040423468,10835.339589221,10649.9384592676,7471.67718464659,4316.75221348451,4301.25025583607,9025.69123125473,8986.16264745567,9439.00284190485,10775.3490055303,10368.2842651615,10392.020848998,10944.2200830981,11075.0026605858,11205.9993185769,4419.05979539515,4539.57509583579,4274.68985721618,10171.3118644275,10884.5192357705,10802.560856641,9370.00383263108,9028.99032161895,9041.95723462307,9583.56468225285,9045.66023102967,10749.8879076313
,90.5,9545.36267022191,9538.59361169772,9872.21818938,9659.3064595816,9893.42918652955,9478.87901777786,9298.92097710618,9354.08967563381,9633.0356947012,7159.50921609736,6360.48409106668,7383.3670586843,9427.72676762591,9397.82049969791,9627.50341835837,9099.57741845048,9230.29940955051,9421.15587303107,9583.82225049327,9088.79067872963,9655.78308424022,5334.24797430692,5984.5358779317,6792.43632077794,9402.95842332759,9503.97389693763,9344.39131292491,9424.14136680165,9491.87746448865,9775.18324980621,8509.83423899026,8303.33480819306,8470.95191358412,6006.86216567165,6135.00386554892,6479.61636351928,9134.73460479594,8922.67201869616,9025.80036874867,7404.9851127509,7616.67559845893,7674.01447149901,8079.5426817943,7831.11157830048,6933.07145422273,5063.86881185761,5122.97195442468,5659.71542772755,8467.50786529597,8739.35377248137,8685.09990458683,8423.74810499317,8295.78651598139,8570.22989660865,8615.12973665544,8224.83516608838,7980.81591870855,8594.090151353,7918.27236459691,8577.10952766245,7787.11518738437,6230.41372206556,7779.92228832825,7102.52170546236,7363.00174239444,7296.26414619212,6731.64302642401,7711.95508260548,7588.2258006331,9607.80448703867,9518.27473199824,9419.15708730071,6718.44598474702,4275.76749482166,4291.03263311733,8411.91601835539,8357.10166049897,8802.44935209487,9320.0116645401,8995.00459156061,9018.49005238134,9691.62082881808,9833.82584722071,9995.91433442884,4391.72590213787,4481.26959518694,4255.35959068318,9111.35640349095,9738.38324645552,9654.7660318924,8018.46055122469,7684.7715782704,7725.99351299264,8560.33443698643,8218.8088410808,9686.91222331709
,91,8200.30711351678,8174.57187351323,8443.1421537045,8536.82561762693,8741.67217770832,8359.76404401898,8254.73375673596,8351.20115794909,8576.92355796084,6222.92981874304,5632.38839977378,6428.07365144653,8031.83630281167,7997.1114538041,8184.20126954607,7939.0586267278,8056.53634156173,8234.21891178392,8654.13024601611,8190.62367271368,8680.00208032904,4861.9891373565,5314.06962039461,5981.67493616552,8010.56299395061,8054.68715776256,7920.29695924298,8406.76596207153,8431.7706386366,8722.89333349763,7492.56279605559,7297.59510743871,7431.77860479422,5312.51239553735,5419.09645962069,5674.80345522233,7797.82809148769,7616.31360646619,7664.83743149789,6448.60379259428,6596.30179800891,6655.08911723101,6907.33931000101,6714.89211356334,6064.7407889162,4704.47060959904,4730.90968495441,5058.12224808663,7245.14313241547,7452.24498695163,7398.23061408017,7197.04065475806,7078.06753296234,7286.98265957,7408.77467896195,7088.35310066917,6895.57112785702,7587.99366581465,6965.09620816708,7608.86642990864,6714.68163490702,5607.89819445536,6698.54495094553,6127.79122485946,6330.58505733215,6261.75795240221,6326.06877977263,7176.96110399176,7082.17635462581,8190.27738927579,8138.2598735433,8115.26425967639,5961.74437491483,4240.67496861796,4280.60164688741,7770.71830408519,7705.08695279907,8128.09971470189,7880.05961802261,7637.29026532127,7664.19806768525,8356.96552634044,8500.46243377317,8679.35606211706,4364.92455532108,4418.16298470501,4236.26297092076,7986.50533507915,8517.67440495171,8437.63108032441,6770.13657806556,6495.53186533941,6541.226601807,7511.42898611456,7333.17895585376,8543.79928047758
,91.5,6847.4458036117,6814.76599690265,7012.99382383234,7438.1007812619,7605.08522117508,7264.47738729302,7238.60492090346,7329.63773801314,7508.13291586979,5459.9187106344,5086.92106909173,5650.46043091921,6680.27992100812,6649.92521436732,6791.77586439151,6851.37455472881,6935.61735641698,7077.16312532129,7745.6849831387,7333.77337375364,7721.37178033244,4574.5074745083,4868.25051842706,5354.74083516385,6673.46313062147,6687.34963164933,6578.39805619791,7423.86092118827,7437.14240027193,7688.79206022329,6547.73808612159,6374.06615828585,6473.65276077458,4843.6181775118,4933.97340916164,5098.00334552383,6525.20480515526,6386.48826000881,6404.42493837792,5688.13192110864,5783.07394734876,5839.53999492724,5971.99527003609,5830.28682021116,5405.88554156881,4508.33305441946,4514.89668078711,4689.74710502172,6121.79116834941,6269.01712583796,6229.6684844484,6190.72445790445,6072.59569596307,6222.83539580392,6366.46376019645,6113.50314968071,5968.47984157787,6673.79873878369,6129.80008515773,6712.82683772723,5759.70317107652,5068.56319386851,5753.86635967354,5385.26774056363,5540.78891636953,5473.66166496149,5939.63716604039,6631.57029130587,6563.44562569607,6910.00182165744,6884.5799285791,6900.16709319497,5289.49707309666,4211.04440433056,4269.97702166499,7109.30961033155,7041.99332513879,7425.09755054432,6659.17813997398,6483.70170289739,6519.34823745464,7112.37696119364,7245.98005447844,7420.20113634402,4339.31331570224,4356.42293376737,4217.63568945246,6871.26806680103,7303.5787010859,7232.47528955615,5808.35530620238,5607.21374236869,5646.27473311777,6563.40381198216,6472.43392876079,7443.83263508298
,92,5758.69193795278,5727.3340853684,5864.9430132137,6463.78329493713,6591.08985685099,6294.55430732954,6306.27484901613,6358.01630835681,6495.97529961,4918.05084198109,4716.48221733154,5098.7852251734,5623.59586084559,5602.52721516332,5705.76031752209,5944.96986547313,5991.27278981725,6093.41907245565,6897.84555082005,6552.61579259995,6829.03083544882,4420.09108846035,4604.01099701215,4923.83327823393,5633.43237436109,5637.58671908491,5548.80540618288,6520.83070406829,6555.19027781036,6721.82714535346,5769.06331092655,5628.36278418052,5705.15672518082,4565.15600428585,4645.00413407004,4732.71284381611,5539.74918056718,5445.85577019241,5449.99226564801,5134.52170580279,5191.98159710374,5243.29525655426,5297.37424626538,5195.33823792081,4953.45536311509,4416.15248002454,4416.02847036128,4496.13024295904,5275.07572713593,5379.94615310298,5356.96789743451,5446.71328577295,5327.73178768473,5430.36818378308,5576.37400008751,5384.83631813304,5276.28337008096,5898.06225020537,5450.44385257463,5941.97871618131,5058.29670860582,4680.09596203998,5067.17429580383,4882.20589721022,5003.09794109208,4940.39252747436,5581.13036556368,6097.9529846262,6051.79045026884,5895.92095583073,5886.7377456423,5899.11899703622,4795.58894838129,4186.97174274899,4259.62645627409,6454.25555497395,6395.37343904439,6721.99159410893,5741.44776285968,5614.50778487381,5657.52916495858,6095.75067512285,6208.68364199084,6345.47035472703,4316.06887948455,4306.65728376249,4200.3785041277,5893.36649262835,6231.98402832133,6173.39611602649,5142.05898806603,5008.79307948844,5036.56252772312,5759.34261666414,5693.5480708182,6446.44562540055
,92.5,4976.14849380669,4950.34593820755,5043.10927267469,5722.15530632366,5813.19298105042,5560.04979745715,5526.42015063524,5538.36551667795,5643.04875031935,4566.75084754893,4491.42180189847,4737.368733502,4882.16876700612,4870.74948538204,4944.66375327079,5299.5789942604,5311.03294547402,5375.13638348694,6197.1284537123,5921.3904890291,6102.28773080224,4340.2914734527,4459.16727427266,4660.26627052251,4907.94025525175,4913.60306719903,4839.23971640448,5780.37602622977,5847.11893967247,5924.42429363989,5198.30188165099,5088.18820601063,5148.8405658043,4416.9084933127,4490.80274362059,4518.58693041816,4855.52526547215,4796.89307000228,4799.56727982906,4773.72070586457,4811.3624207009,4854.93917576801,4870.04759939513,4794.83217822153,4680.55267976361,4364.46233152445,4363.4565816597,4407.3102571959,4700.60987038079,4777.56228837368,4768.98871039074,4962.08514558423,4844.7927690957,4914.09813816687,5049.32317380729,4903.08841017195,4821.76924974962,5286.88103555175,4953.88266976196,5322.84392313334,4591.34294994693,4420.37595334424,4615.34235592423,4593.44171665597,4694.0378301751,4636.24425733815,5255.64038893024,5606.73134003497,5570.50696739911,5193.65162213846,5189.55240684363,5183.31378602546,4461.14677487158,4168.01894395232,4249.106953098,5829.47636188884,5787.26836359736,6043.82579673453,5123.14704673319,5026.14086761375,5074.59636679214,5362.90128227238,5455.45916784216,5551.11706322736,4295.40295720855,4267.86736766517,4184.8536076065,5154.73634057716,5421.27720354682,5373.64211833869,4733.30156403184,4658.82396355204,4672.50379220894,5150.95993796961,5097.40956745219,5636.07970092926
,93,4486.61064616161,4468.9595002049,4532.88048672736,5207.55417446289,5269.73093341763,5054.80714570052,4968.22182494603,4941.66306445417,5027.89766290676,4370.32079344676,4381.50807177551,4531.72970362243,4436.44242440541,4434.44815411352,4488.28910064971,4882.67183049989,4865.30699819829,4895.53587353331,5657.3028743291,5441.12030465203,5553.8517084392,4298.9145016878,4383.53715437051,4504.11403236762,4474.74256546889,4490.12679562004,4425.15806202248,5244.78414340277,5340.95004220642,5340.39259510776,4815.07772269155,4729.63025292442,4781.14816601035,4350.81714306243,4422.02009055818,4411.43948290809,4449.19468071393,4416.14537048938,4425.72496822228,4569.3317221977,4602.2653233597,4637.63242417293,4641.7102641695,4579.070655092,4537.61406179025,4328.6400342156,4328.70768023644,4365.46300450708,4370.10480300091,4432.85411138791,4435.75002568123,4695.83570757283,4584.22207632798,4633.70310399178,4736.14010227645,4619.32777042128,4556.09053357146,4877.5688731517,4637.4393184515,4894.91616460196,4329.83734510468,4272.63591429781,4367.4088625494,4448.04481650457,4541.77994577087,4487.22534897434,4972.41592607362,5179.29095894056,5142.12286270516,4762.49284686692,4757.36701855338,4727.22945910847,4268.00296295275,4154.04440097513,4239.31540665634,5272.78479017669,5253.49976842312,5433.77978104428,4763.8878377834,4682.5475579218,4731.72341631317,4885.57829104748,4960.27935567847,5019.95132027972,4277.45137298811,4240.48798835877,4172.04281128218,4652.73742830609,4872.52273047939,4832.3391866669,4523.96103762242,4492.49503647697,4492.28793474591,4746.55466596013,4690.13237856497,5071.68349356125
,93.5,4258.02289916092,4248.99928673665,4298.55164397691,4864.42649456998,4907.49612334767,4724.52945733006,4600.86589707767,4546.92686603724,4623.20189406587,4290.64635585376,4339.93108595695,4442.70587080165,4244.38323811246,4250.86192981273,4293.45841403499,4621.89890943582,4588.84551927779,4598.46680346173,5254.4835411405,5085.58892731806,5158.76773684095,4274.99485891477,4344.68386383757,4422.17989393859,4288.9768000086,4317.25479174193,4257.30985243134,4883.04432708104,5000.89383293658,4942.71944121909,4582.05156174559,4516.69945988719,4567.04114587952,4320.61858791296,4389.67446065859,4361.82829103335,4275.68797739675,4259.04559257877,4276.79275796405,4447.67704452449,4485.53715179091,4513.74275201124,4526.65732437291,4466.21215407408,4444.44431035409,4303.93135779424,4305.09284359455,4341.98600614856,4236.05445509566,4296.28391508488,4305.21420393762,4567.81229975867,4466.01042565466,4507.78282728452,4577.08839953938,4477.28693395377,4422.9546563385,4630.17053518173,4450.86757798161,4628.79380964423,4229.39912697801,4214.66600332211,4276.11668862184,4364.10700059489,4458.35402292709,4407.25013757677,4744.35221900465,4837.91001956468,4794.2997352842,4549.89341413164,4540.10015157681,4482.72565874347,4189.64414411157,4142.3435621331,4230.77804883898,4831.38158276608,4835.01964522301,4948.38807958871,4590.89738445968,4514.12389781007,4563.85226167609,4620.90340152927,4681.63136838586,4712.08576129218,4262.08708020684,4223.49971836431,4161.87391277444,4351.47122536003,4544.19095374069,4508.75916795841,4442.58750984548,4426.42134321512,4420.41496278623,4511.53043448908,4444.58960734189,4721.63504461147
,94,4208.27255271717,4203.81815372308,4250.24847363989,4657.69771633778,4691.49373361221,4532.83573596113,4380.11853019094,4316.97285789777,4388.17501124761,4256.98970884088,4312.27448063494,4398.16554907402,4210.87126119665,4220.68736897645,4258.24605270451,4487.23488389683,4449.81364474136,4451.60089001938,4960.7166681609,4826.64817068182,4886.12407733459,4258.54166476816,4320.7497346411,4382.66972271939,4255.24858451982,4289.86399601967,4231.50839921218,4643.64305466453,4769.39772579627,4680.3231376878,4459.60502977157,4408.81307846074,4462.07077455777,4304.03078212841,4372.25584375643,4335.88698754016,4244.35194139966,4234.33206872694,4254.0789410061,4364.98152331889,4409.3156400631,4431.16751357775,4453.7225773583,4392.75016854998,4379.14234004832,4287.46229211691,4287.98105678745,4326.93950086442,4214.18285559001,4277.1649569725,4283.52728590632,4493.17422173221,4402.22431319584,4439.17103288447,4505.12587221544,4414.29960797829,4365.47129071714,4480.45871026271,4340.63635661135,4464.45579180691,4214.60774766666,4205.25275812429,4262.31737927414,4311.33601934138,4407.97785853339,4359.34247171394,4583.34885526804,4604.01259263739,4551.7155416388,4457.25361086953,4441.03967348383,4366.90087060951,4174.03766175156,4132.90761989012,4223.34741693434,4528.35544258873,4550.54196545623,4613.44851154015,4499.67135774335,4424.09974741314,4474.56614867203,4485.21600108216,4535.69295522356,4547.25106826043,4248.92076528029,4214.07654127879,4154.1024674921,4211.97049442844,4392.05442698854,4358.25565993007,4391.23479278917,4381.33759875489,4371.53833099028,4377.09926452824,4315.83087988631,4521.23264726499
,94.5,4191.83885873324,4189.72260461064,4236.54187018462,4527.30761493771,4556.20422998953,4418.98419441342,4259.25076977231,4200.30275209297,4272.94346676215,4230.60383134622,4287.77372475193,4360.49077148135,4199.69643682837,4210.525829918,4244.70005887887,4412.42983677085,4374.9767377899,4371.55718517192,4741.92101069742,4631.62322155696,4696.61024753918,4243.90486698342,4301.96709401572,4360.14546999543,4242.94063108865,4279.63032917105,4222.2022211056,4489.62253724137,4608.68604208007,4514.15239992843,4383.93986713183,4340.76790504087,4395.40777625349,4289.40003358152,4356.55531095019,4314.37956103369,4233.63881824843,4224.53281846931,4243.87217446306,4299.51894446692,4352.05530929103,4368.17970499868,4396.70998103563,4334.5092956165,4323.91108866293,4274.32535201651,4273.62734204934,4315.61403605726,4204.24623691596,4269.05014530941,4271.10377249798,4435.01360253369,4356.48099643978,4390.51091278863,4460.33356655711,4373.20291534315,4331.43037062058,4392.31404933586,4276.26249175372,4360.2900922471,4205.51525896767,4198.84280020776,4252.69465534419,4272.38373842044,4371.85355272443,4325.13702702544,4445.9647248292,4411.90054490556,4345.81844895155,4408.11530486757,4384.03532192633,4306.2024995928,4163.11051210279,4124.58759629441,4216.54764022231,4275.00047798856,4314.26326146297,4330.56349582759,4431.05950258651,4356.16980017892,4407.80914438226,4393.79807373352,4438.63056145766,4448.3638388931,4236.79077854261,4205.41538425746,4147.73083403189,4155.36692694613,4335.09785169985,4299.90415894666,4348.88092313618,4344.07953239897,4330.48830173698,4306.04187386954,4262.9269834207,4422.82335917016
,95,4179.55810282246,4180.78941948906,4227.94013575357,4422.39727494049,4452.85270809831,4331.43119618856,4225.7999369556,4165.48048976409,4238.82359666439,4211.39864954219,4268.26282193884,4331.89337107931,4194.01699310705,4205.9746955731,4235.45335967622,4356.69140855672,4319.30700368424,4313.41778977404,4566.33285757839,4475.3314981732,4550.00312914132,4232.61096725999,4286.79477123718,4350.53546543751,4232.69505786357,4273.40687251523,4215.67263262519,4391.98932720453,4498.79761224403,4406.6961008146,4337.81704241433,4301.82151191367,4356.16124946291,4277.25866442632,4345.04153032726,4296.91024640755,4226.57240822005,4218.72452526244,4237.122162666,4262.51855194237,4316.30493244548,4328.32468020761,4358.91168268596,4296.79532148475,4298.12685373712,4269.13530225516,4263.16778349933,4307.704906861,4197.06911306495,4262.58607403934,4260.2141516258,4402.13709058556,4326.14463892878,4355.06947351742,4427.24760107325,4342.14404462649,4305.15493106594,4347.96881989842,4235.41042494889,4307.90430474797,4198.45480257446,4194.90185964082,4245.25195035521,4250.89711285149,4352.11959172241,4306.94385776403,4395.94161263227,4350.38635976526,4281.49115531779,4375.60601145683,4343.97749793036,4264.29369720913,4154.00375032844,4118.90786117593,4210.63259994272,4222.38817522886,4268.24424914145,4272.95197611466,4390.20578099882,4317.2077111027,4375.55131256,4328.12961152823,4366.17000139867,4374.728970461,4225.47825648893,4199.96995893368,4142.94475847517,4140.06240417158,4317.9828634339,4280.90769812347,4319.46856417642,4319.77183624263,4303.2715542956,4263.2336238107,4233.39377443888,4383.66799356437
