,Temperature,A1,A2,A3,A4,A5,A6,A7,A8,A9,A10,A11,A12,B1,B2,B3,B4,B5,B6,B7,B8,B9,B10,B11,B12,C1,C2,C3,C4,C5,C6,C7,C8,C9,C10,C11,C12,D1,D2,D3,D4,D5,D6,D7,D8,D9,D10,D11,D12,E1,E2,E3,E4,E5,E6,E7,E8,E9,E10,E11,E12,F1,F2,F3,F4,F5,F6,F7,F8,F9,F10,F11,F12,G1,G2,G3,G4,G5,G6,G7,G8,G9,G10,G11,G12,H1,H2,H3,H4,H5,H6,H7,H8,H9,H10,H11,H12
,65,67.386098457067,60.9593814371156,86.4405928696297,43.1960377333548,36.5874070501391,43.9535273529364,18.1464997501871,6.63111927723867,14.4558931980387,-58.3408730487145,-53.37136956618,-42.4677694749521,70.9026573510046,87.5653672613016,95.7817504366999,38.5865074955809,32.3237640064172,37.6331305374219,7.2706160851094,20.8192370421634,22.452825430365,-51.4429837101779,-50.8411786145525,-51.8474917008484,6.79775096328694,106.732510395133,102.300414041358,23.4380414964121,34.5169223502085,47.6150588198161,-7.8478812910721,0.340806282496033,-61.0077353663651,-47.1542034539552,-46.208359442307,-52.8630667856751,84.2549441130159,77.9403283522947,103.153196686172,10.0710739324304,9.84327068588118,15.625838399108,12.234628958252,-0.887384711016693,-0.452661026532496,-45.6572067024372,-38.3875634624524,-63.4449550189938,87.7976271434786,105.54176839049,105.927706362032,9.58407854804364,57.5193273489599,53.0056634543835,-30.8000676183374,-29.7492812836745,-30.1692565405638,15.0218847382507,27.0869705040586,17.7494281463173,98.7993735113364,124.66494373797,112.139065097306,43.2894870714817,-16.4608013567899,33.2072719620001,44.7647212462853,27.6838247890801,39.4821096186461,39.0588162114973,41.4344586827124,14.0039780815787,115.223555422758,49.6347448745364,69.0964221328209,-3.52422128695571,-10.2149075896018,-11.2703916058053,41.2687528292113,25.8404818907616,38.7692555901531,28.1776624583481,45.458727703508,11.3438946777655,88.9325771430381,84.2382001269141,57.5447432140434,25.6173875660297,30.0170270481945,31.8745205079408,37.5810204237018,26.5815477259198,36.9300499308656,8.99653561149535,-17.7140012972841,-94.1013680791943
,65.5,146.003213323648,132.078659780415,187.287951217531,93.5914150889371,79.272715275305,95.2326425980309,39.3174161254101,14.3674251006832,31.3211019290843,-126.405224938886,-115.637967393392,-92.0135005290649,153.622424260509,189.724962399486,207.527125946185,83.6040995737576,70.0348220139049,81.5384494977466,15.7530015177413,45.1083469246905,48.6477884324586,-111.459798038719,-110.155886998195,-112.3362320185,14.7284604204556,231.253772522793,221.650897089608,50.7824232422299,74.7866650921178,103.16596077627,-17.0037427973234,0.738413612076783,-132.183426627122,-102.167440816899,-100.118112125004,-114.536644702301,182.552378911532,168.870711429971,223.498592820035,21.8206601869283,21.3270864860738,33.8559831980674,26.5083627428735,-1.92266687387428,-0.980765557492305,-98.9239478552763,-83.1730541686488,-137.464069207818,190.228192144203,228.673831512727,229.510030451068,20.7655035207617,124.62520925608,114.845604151163,-66.733479839731,-64.4567761146291,-65.3667225045506,32.547416932875,58.6884360921281,38.4570943170161,214.065309274557,270.107378098936,242.967974377493,93.793888654875,-35.6650696063766,71.9490892510012,96.9902293669525,59.9816203763344,85.5445708404009,84.6274351249176,89.774660479206,30.3419525100871,249.651036749304,107.541947228162,149.708914621112,-7.63581278840456,-22.1322997774732,-24.4191818125782,89.4156311299525,55.9877107633151,84.0000537786655,61.0516019930933,98.4939100242709,24.5784384684894,192.687250476584,182.516100274976,124.680276963759,55.5043397263967,65.0368919377552,69.0614611005426,81.4255442513545,57.5933534061601,80.0151081835411,19.4924938249087,-38.3803361441223,-203.886297504921
,66,134.772196914137,121.918762874226,172.881185739256,86.392075466711,73.1748141002849,87.907054705875,36.2929995003819,13.2622385544737,28.9117863960778,-116.681746097437,-106.742739132365,-84.9355389499024,141.805314702012,175.130734522602,191.563500873401,77.1730149911609,64.6475280128348,75.2662610748466,14.5412321702261,41.63847408433,44.9056508607309,-102.885967420356,-101.682357229099,-103.694983401692,13.5955019265743,213.465020790274,204.600828082715,46.8760829928315,69.0338447004201,95.230117639634,-15.6957625821447,0.681612564990246,-122.015470732724,-94.3084069079027,-92.4167188846191,-105.726133571358,168.50988822603,155.880656704592,206.306393372336,20.1421478648535,19.6865413717564,31.2516767982156,24.4692579164989,-1.77476942203793,-0.905322053069995,-91.3144134048703,-76.7751269249029,-126.889910037982,175.595254286957,211.083536780979,211.855412724066,19.1681570960845,115.03865469792,106.011326908769,-61.6001352366711,-59.4985625673498,-60.3385130811198,30.0437694765001,54.1739410081218,35.4988562926301,197.598747022668,249.329887475941,224.278130194606,86.5789741429576,-32.9216027135785,66.414543924001,89.5294424925746,55.3676495781551,78.9642192372894,78.1176324230041,82.8689173654175,28.0079561631574,230.447110845508,99.2694897490708,138.192844265642,-7.04844257391187,-20.4298151792132,-22.5407832116107,82.5375056584144,51.6809637815213,77.538511180303,56.3553249167012,90.9174554070228,22.6877893555247,177.865154286079,168.476400253818,115.089486428084,51.2347751320549,60.0340540963857,63.7490410158889,75.1620408474041,53.16309545184,73.8600998617335,17.993071222993,-35.4280025945777,-188.202736158391
,66.5,134.772196914182,121.918762874222,172.881185739277,86.3920754666647,73.1748141002658,87.9070547058909,36.2929995003683,13.2622385544728,28.9117863960623,-116.681746097429,-106.74273913234,-84.9355389499115,141.805314701997,175.130734522599,191.563500873418,77.1730149911618,64.6475280128566,75.2662610748771,14.5412321702261,41.6384740843237,44.9056508607291,-102.885967420349,-101.682357229092,-103.694983401629,13.5955019265434,213.465020790278,204.600828082722,46.8760829928392,69.0338447003664,95.2301176395977,-15.6957625821578,0.681612564966599,-122.015470732673,-94.3084069079,-92.4167188846441,-105.726133571346,168.509888226025,155.880656704569,206.306393372284,20.1421478648281,19.6865413717264,31.2516767982584,24.4692579164753,-1.77476942196472,-0.905322053032705,-91.3144134048739,-76.7751269248761,-126.889910037947,175.595254286892,211.08353678096,211.855412724107,19.1681570960873,115.038654697914,106.01132690881,-61.6001352366766,-59.4985625673089,-60.3385130811407,30.0437694765046,54.1739410081382,35.4988562926605,197.598747022705,249.329887475988,224.278130194643,86.5789741429458,-32.9216027135385,66.4145439239919,89.5294424925246,55.3676495781865,78.964219237238,78.1176324229914,82.8689173654084,28.0079561631378,230.447110845504,99.2694897490767,138.192844265635,-7.04844257393097,-20.42981517925,-22.5407832116007,82.5375056584367,51.6809637815613,77.5385111802689,56.3553249166985,90.9174554070341,22.6877893555438,177.86515428609,168.476400253815,115.089486428086,51.2347751320776,60.0340540963557,63.7490410158653,75.1620408473977,53.1630954518382,73.860099861728,17.9930712229352,-35.4280025945186,-188.202736158387
,67,134.772196913785,121.918762874298,172.881185739098,86.3920754670517,73.1748141003973,87.9070547057336,36.2929995004401,13.2622385544842,28.9117863961983,-116.681746097463,-106.742739132561,-84.9355389498346,141.805314702122,175.130734522615,191.563500873299,77.1730149911509,64.647528012682,75.2662610746252,14.5412321702015,41.6384740843414,44.9056508607437,-102.885967420407,-101.682357229191,-103.694983402161,13.5955019268035,213.465020790236,204.600828082658,46.8760829927523,69.0338447007716,95.2301176399014,-15.6957625820614,0.681612565176238,-122.015470733056,-94.3084069079591,-92.4167188844235,-105.726133571403,168.509888226049,155.880656704747,206.306393372724,20.1421478650436,19.6865413720075,31.2516767979164,24.4692579166813,-1.77476942252406,-0.905322053301461,-91.314413404878,-76.7751269250984,-126.889910038252,175.595254287392,211.083536781109,211.855412723755,19.16815709607,115.038654697978,106.011326908478,-61.6001352366534,-59.4985625676454,-60.3385130810107,30.0437694764719,54.1739410080118,35.4988562924336,197.59874702243,249.329887475629,224.278130194382,86.5789741430813,-32.9216027138459,66.4145439240774,89.5294424929202,55.3676495779487,78.9642192376568,78.117632423081,82.8689173655062,28.0079561632906,230.447110845558,99.2694897490292,138.192844265688,-7.04844257377454,-20.4298151789476,-22.5407832116716,82.537505658267,51.6809637812744,77.5385111805372,56.3553249167067,90.9174554069054,22.6877893554192,177.865154286008,168.476400253877,115.089486428082,51.2347751319071,60.0340540966072,63.7490410160294,75.1620408474614,53.1630954518655,73.8600998617885,17.993071223364,-35.4280025949797,-188.202736158399
,67.5,134.68374919113,122.987348535796,174.065963713652,86.5216218572282,73.3959468062112,88.0047440382741,36.247736341134,12.6029376412571,28.6856166915745,-119.535148990342,-107.703276329765,-87.5183520370165,142.104942829108,176.640294712947,193.284534229238,76.2898272882685,64.4115393183147,75.485968847363,14.7479859974333,41.5300844364242,44.3370531586779,-104.036334245338,-103.410032308712,-105.071238968732,15.8220661899977,214.568984936092,206.180312019173,47.1373533378101,68.8183032196002,95.6882583513602,-17.523997744785,0.760598742306229,-121.197254760891,-95.4506849639902,-93.5333051496305,-107.214503943443,169.847676040808,157.347207924533,207.109293907265,20.3677823301446,19.2515743323065,31.0439260980479,24.2619444093862,-1.71040040988146,-0.653925514906405,-92.3175784592045,-78.2398837945848,-128.301639392023,176.895291575796,213.133802028845,213.286873921016,21.3775153030128,115.480506019529,105.76216216679,-62.2448344313675,-59.9193565036544,-60.5053313574767,29.2269553725569,53.5019690205772,35.2718370119169,198.404674183351,248.072347857001,224.976504530918,87.0490948445363,-35.9765605746306,65.9352557779052,88.7187560274706,53.8328878068369,78.1601938510644,77.6947375124341,82.9505918909099,27.090290817654,228.885763305241,95.9141615763983,133.056158163287,-9.85501120366644,-22.9910427138307,-25.1129483087584,83.2264990029166,51.5073820069588,78.2130378303764,56.5753983892855,91.5384334545465,21.7354424023661,171.555213761829,163.588264790136,112.048450995377,51.8867501979703,60.6325996535606,64.1469596731285,75.042743122051,53.5015531219087,73.8524810214467,18.1122935000976,-35.6211512448294,-191.682514971348
,68,134.688937532379,116.964770068149,166.952190666371,85.7402801558055,72.2524863287754,87.6231260579143,36.9373777475871,17.9742257612429,29.9780408811289,-102.764518247241,-102.333102977547,-72.0497176310787,140.007295192971,166.851920355829,182.32761950831,81.1608344215833,65.6335665020783,74.1657570478787,13.2176442025202,42.1995198102936,47.8368546547372,-97.7792199867167,-93.4459541780584,-98.0116607034333,1.0563770927215,208.004705821971,196.465797391321,45.0569267389228,69.9628283087859,92.2755549546123,-6.71877665794409,-0.137446483581698,-126.985865279592,-88.4742329845553,-86.5956377879456,-98.8685841861593,161.597475248676,147.36653248573,201.675259616615,18.8577884620117,21.5523899577556,32.1864492476693,25.5300247903665,-2.67151627740486,-3.08147748037754,-86.3519893547968,-69.4341190751993,-120.412163600326,168.539937833107,199.933089804452,204.053482420501,7.52226728516735,112.686888498436,106.918663435992,-58.727320000829,-58.1201709833499,-59.9185263291142,33.7316907403806,57.8408351889479,35.7176581452973,193.898287334605,256.414449389799,220.38979077944,84.2838250290711,-17.5677067112415,67.6852176427019,93.9901969572593,62.7605629671029,83.1742782858632,78.8433598200704,81.7028716637537,31.7087367242539,239.126562892249,116.391846008341,163.880993634246,7.63235314108124,-7.1780124606662,-9.38103072306467,79.35600042134,52.2483912059756,74.1496229589402,54.6043211240772,87.4529473944294,26.9713795086682,209.639954859119,193.464012400295,130.752504849632,47.6401341311234,57.0424979486043,61.6398212397826,75.4983054999316,51.1297051884412,73.5488083573787,16.9945961168642,-35.0442043537928,-171.295927250185
,68.5,137.745013775295,100.050274678461,150.183395585932,83.8322216484235,67.414625665428,84.307840007953,33.6726607916166,17.1509931790497,32.8680797229435,-64.4158793036577,-87.8015725524219,-37.7360451538739,137.268277759928,150.311728928583,162.407217602889,94.7998016623965,68.8969433444813,70.1033768988023,11.6476585500932,42.9846972758942,53.3356662646165,-80.1620214452746,-69.5055910784681,-73.2383857769319,-24.4958664276073,191.871716212012,176.314305689122,43.6504487211059,72.2201048275583,89.4657982974004,17.535244474097,0.410871375789611,-134.34145498956,-75.6656367662545,-74.9664763442611,-76.4950441423944,144.351868829951,133.81463254234,193.939669602529,15.4613006478016,28.4008940542799,33.7695630864896,26.395736786983,-1.4859992372144,-3.00550148686807,-74.6845220621622,-51.8537732214131,-99.4838521871179,153.47244966052,178.013610360225,188.011763856026,-19.4363995568556,106.23421458912,111.258395028939,-49.6966753912734,-49.4432324722638,-57.135362558372,45.2800378411403,63.7950617684378,42.6678433579909,180.567778352555,267.649727266666,212.684032581951,76.4785830279502,21.1476168933332,80.1781634486379,101.417461746431,83.7322512735363,91.4427717400172,91.3977892627331,84.2808865323541,47.930295151602,253.817554066902,158.044745970039,230.821635510314,39.7296843137797,23.4280733638038,21.7829281618497,67.1475582556468,54.9687718666096,64.2353778022416,54.0529478641329,80.2148331834851,41.0889958250586,290.998206273879,254.405313526637,167.641065487061,40.7491884608085,48.1020014164828,56.6677541795739,78.4942325254442,47.3702008835758,75.1915302899056,16.8938318465425,-29.8051824912368,-124.291277978073
,69,152.150380341604,84.2287130404416,143.651665865522,83.2903536578542,66.8936843758529,84.5602058730665,35.8637702755818,10.9403630374582,37.8870971038009,-21.2919742339604,-70.0638529451771,-11.145748173662,140.290025164359,148.021489983372,156.909288168726,112.456763638105,78.7577626806624,73.5087000139492,15.7071702780049,45.3971422160371,66.0606804717859,-51.8706009132648,-39.036984819003,-41.6967943757663,-3.81665935860246,185.00530106497,165.032279016099,52.2986689117661,83.7545210984536,96.2539140713734,43.2792333897041,9.01098460717321,-125.05605360793,-56.915536138923,-58.0865064228283,-49.8408009429545,136.437228719454,139.311315592368,197.122140844035,22.1284021751862,40.5112679248155,47.0392182694045,37.6526292307763,12.5600703462319,17.3787135014522,-53.1005395533275,-27.8478512625566,-70.353480749463,152.157668990817,167.214041701669,186.152063659122,-29.6867068362744,110.469709998069,123.06169684792,-29.8167673528546,-29.6014471015401,-40.1496071248612,67.369693406089,71.6399724168082,64.7166043930092,170.474879515445,273.706214426242,214.354446041757,76.8415890427118,59.3230332029584,102.227348910012,108.227330879673,107.552324266057,103.506649095333,120.577198166293,96.8122889102369,75.2402635255407,262.785691011009,193.626812646771,292.278294392241,67.1440098039425,47.2345428221265,50.8569574266839,64.2876797507893,67.5283933581409,62.1763907714226,67.5335340214838,83.8028161690131,64.3368832563224,360.561292479822,302.739137197575,198.053397190809,37.715031812229,45.8889296864063,55.0600132636005,81.9018035690833,54.8885700208666,81.5465666948326,24.8620465660119,-16.0334570240893,-70.695287675419
,69.5,180.847629208419,87.0013960696097,150.643095659248,87.1502517389613,75.9947979753165,94.4783793974161,53.0633546669965,18.630348537898,52.7541799437277,32.2641359065956,-46.3129160396297,20.6731687069991,153.921634114377,163.145542397062,165.649476569673,137.778384108311,103.446319684401,92.9604123152885,30.9468173470968,61.1447928488519,95.1176426384859,-8.84027367502949,4.83036116319136,7.29272337173234,57.2556355415136,196.563607025403,170.784519080036,76.0266597674831,115.446000074255,116.170280740113,80.8197891293548,34.9493527959226,-73.8698027866126,-22.1994159520304,-16.2262485270194,-9.16448591276503,148.913283568703,165.285836533041,213.695429829601,43.8730581458885,63.0910347844142,78.4230438476061,66.380122075584,43.0509701808314,61.8486100039659,-11.8631001976787,15.4755025407621,-29.9669278900883,173.011200203375,171.20014519792,197.489380377907,-14.1423017232441,136.383969500147,147.927955665411,6.34841364975364,7.35600944587532,-0.645281445115415,108.023527548608,98.1878335826823,105.846822877908,174.243398044571,286.577373012458,229.277233035878,95.7486388597349,105.539419881454,134.673283299799,130.415309766145,150.569214213522,130.905761094918,168.01068770232,126.123042148858,118.494205127566,278.880758664072,226.554658347989,346.997064231785,103.72867423093,78.8678910094632,88.0852350625382,79.9736514553028,98.4104488472772,78.4516258756489,103.417468110396,105.394194745052,102.292766147289,421.24811341109,342.329883249337,225.705289153474,51.8180166674815,64.5603316665283,65.55944014939,99.618443500397,79.4765446723527,101.888669190426,49.4070377796438,6.08174046771501,1.71564505656079
,70,219.350907187683,111.323722585797,171.486741494945,99.7009161486758,95.8387054635159,122.659553390945,86.5943985628364,44.2542198197148,83.051445557574,91.5542963300259,-9.03914316265582,64.9615948459996,185.304068318076,196.101858099039,190.688949440168,180.46517889902,141.747894669025,130.173115246249,48.4492259976355,102.387339552618,138.82446348418,48.4191287900471,56.540509721784,73.7522888515282,131.932408870608,225.00327463285,199.129752014116,120.9356682855,163.348083670748,154.993570972357,132.772938349234,82.2517442200251,14.0576479705373,30.1240119390727,42.9430231695942,46.3968394545559,181.81501417096,210.430280981759,245.738769438781,85.2087052650791,102.289861013503,123.133021516897,110.474204144836,90.1988225691534,123.053448745003,45.9180885936353,72.2826501032041,17.5671528716143,213.321734815355,199.091861599709,221.623347448368,45.1338321672979,179.248050287734,188.629178973673,59.3890124622994,58.7016991487731,58.3798104073708,172.541631216256,144.836941536289,167.185499232101,204.165759499458,309.889912607916,259.77119518208,130.285898098906,155.022807229884,182.35876029775,169.90888171335,214.812733731508,179.454280172224,228.71252925017,175.277773004957,174.240249131395,304.506332127387,250.856469511989,384.327173549225,151.466399327076,127.839465780758,136.985375886115,113.37160793525,144.766475204791,116.003293372869,160.845088913614,149.520663237463,154.931003230338,468.025182403338,368.51531905494,244.91097787225,79.9193677031121,99.030111893198,97.9553225214713,138.156870309996,120.949395950325,136.615030211416,90.9854968896861,40.4282864362131,91.0211194742533
,70.5,265.463878484767,145.102961691816,211.849978688361,133.067409466666,135.198401388202,171.10802468399,140.082376281638,87.3883276602523,129.255469683025,154.080660208108,39.3331049082431,109.882678015659,230.593148845201,245.380540642958,235.521186633652,236.168183267796,187.761662195972,181.252210525057,66.1021374009638,161.225555665407,193.663438254127,115.000098393781,113.469137334087,140.155504644823,220.65611840273,267.257170260877,243.189675734237,180.295376590871,221.902410151798,213.364156689932,186.518717679953,143.494314883104,107.73759313852,96.0290710662875,110.315415908583,108.774296732008,229.838677025237,268.591214217256,291.173508981229,140.744563474107,153.612087741491,175.061675868375,167.675195190516,153.189142730039,195.833216460338,114.412667252779,135.317431826216,63.4116507927406,265.486242127678,249.486877990636,262.194860657015,132.5830241703,229.826505522127,240.793631405332,126.102761347846,121.805208090957,129.870455606529,245.568786357716,201.19653635745,240.303483031052,252.430905709655,342.636769727753,304.595662478536,177.661437990303,202.881123065367,236.716686844321,224.075524343051,282.806651147138,241.490446290825,293.898937371484,233.846750239954,232.121407667458,339.319829250803,260.807751990865,396.172264910486,207.701604031882,189.659088634381,196.998271517429,165.750644585472,199.228616471955,174.234163469491,227.131384291386,209.479007048671,212.669319256815,489.841503584673,376.119080925772,251.988441701241,120.858429174768,145.417453390584,146.124345692988,185.877475507715,178.961708812508,181.807472325002,148.009783571051,88.6912756121474,171.64877899369
,71,314.30451723319,180.013625452094,262.72577362119,183.146031642169,190.205329122058,228.630631173713,202.764730478328,145.897715206469,185.534814330429,212.017589483588,88.3317739479953,150.807479632601,278.970646813241,300.59061524533,290.102243638753,285.554594729935,237.59534971516,238.5512686308,91.4784748741349,226.481903291032,254.604857046119,181.491682458545,169.42925162265,201.31529183605,308.208669217422,317.560715824837,291.384724935239,242.626172602058,282.059846867677,275.726023527717,232.373297342353,207.792215126041,196.125625301933,167.731978150408,187.262732943128,169.433144180224,286.51617395808,327.938834674313,335.637583167577,198.156691991695,206.147083154332,231.018328415795,228.591305657876,220.16501542516,267.276369871759,183.330913532384,199.835971862551,103.164608241964,321.60412860464,309.044152201941,311.384258146155,218.007004185697,285.053674709752,293.768818878712,190.250460562524,186.840356885693,200.358406734025,309.889875326188,264.371155114511,309.729441990753,305.796736558983,380.833558826152,354.482496612688,231.585758581912,250.277187709452,285.856554209773,284.874136333234,348.631852342709,303.523842669635,355.755289702922,292.931174769494,286.296808432734,376.252613396364,255.110841154204,379.025654370092,265.249418970398,252.639470863245,259.347706082779,230.702928023065,259.599362392637,241.36034514396,294.564493905848,272.62529533405,265.415435028155,478.916202963583,362.820926332924,245.563117137153,177.727719526903,205.887475217121,200.893568157765,236.668427782662,242.538832958929,235.194606558069,211.958207330263,137.391179727651,237.109975656224
,71.5,355.17676184558,215.839576268923,311.961558450347,236.841479942424,244.415588352545,285.291038662529,259.814275351003,211.767462331306,244.011889837732,262.416094231596,138.180702734171,196.143661209362,325.941711511292,350.695372682082,341.773162494435,329.879976242881,283.007203544886,291.776261123026,122.266254605629,292.623384216419,312.576519547906,238.908644960626,217.268792494948,258.397472680376,372.434455350813,364.589649120509,341.882685729978,302.32914024115,335.635151977399,328.804251197447,276.136889636373,268.51208470384,271.932668864513,236.116517436386,257.737306662953,223.701970086615,340.941746997226,380.040112891394,379.059045225936,250.434772670495,254.24835344024,281.813737581212,285.136086158642,276.700401163091,324.6321967956,241.105657965635,256.893189205487,136.21767171151,372.486663502716,367.225875299245,357.823535535022,295.542251841307,336.245008445224,341.348051243133,244.052449165655,243.694610313485,259.44405654075,366.954651615529,325.577483177741,365.924264292716,360.832342439467,418.786575993998,398.896725417978,282.361695274808,297.116831698348,329.631097414316,344.167738508858,407.893881480808,361.851159670769,403.548000043852,349.242420835385,330.497671923406,410.340642406822,235.179256794726,336.690276605656,318.290193033497,313.208131405554,316.332216842419,295.842417691827,315.96994632041,305.175885672474,355.36566969766,329.996939684891,313.862253392311,442.26489502767,332.337292582651,225.259414717894,238.648433664804,269.654612673877,258.95023569343,290.668923506848,301.876945090524,291.49706020386,270.427779344184,179.873658248229,295.683760232575
,72,385.833638834333,242.929749165681,360.040513159827,289.46128967666,292.33482264755,336.382465327687,309.623537182112,268.592921785719,295.066585899915,303.173340621309,185.752783604946,239.94699302048,369.557368337536,392.910496451585,386.795143235376,372.641381465294,315.048471168053,338.474793681399,152.338893308435,350.851243469598,358.623792836448,281.818789649903,256.021834790123,301.244626015793,413.328410504051,402.956336329989,386.92630871439,353.082238046647,381.615503364013,376.388222754331,313.361897238878,317.611058023682,324.663782273157,293.984485863616,308.73900692116,267.847020895718,385.559548645927,421.360879851506,418.541936399967,294.823721426229,296.90644578926,321.927246728061,333.143230052939,324.988922366682,369.901742995756,285.802810324726,298.830152369822,169.783338683424,414.459581342911,417.69448466557,399.602496035221,361.146140327997,376.10539957758,384.07429504834,294.885520062095,291.490221898991,303.977432983133,414.694091994115,376.091809608647,409.247780227583,410.703666260798,450.118313732133,438.73842474885,327.308989140615,336.850005535478,366.520323143111,399.212517480358,452.048233098331,410.554605696786,437.640836794736,396.363407741563,361.068715694145,438.988877627507,204.798526123998,278.617250967458,362.116561461281,366.635467606121,366.331091338502,355.106442291445,361.723732604827,360.005215907234,400.660760356664,376.103839739885,354.730391733905,387.602032046253,292.112117451721,196.696875741062,293.809557484568,321.011922099166,312.941576931591,338.064279882175,353.915469073571,340.14391029669,320.181655912429,220.409245117357,340.098638765723
,72.5,407.899399975324,260.215768742163,401.660642783782,337.951648429473,337.565677819848,376.825849507744,353.965086075386,314.216886790439,331.914140892101,331.972455013087,222.389923090464,268.069598593426,397.187229001485,426.402336457313,425.614791820252,405.714114515876,339.76842944092,380.225000251185,206.248800789218,390.283888546076,392.35939785256,309.252848904366,287.04804956994,326.180457239753,444.117025802804,434.297871147929,422.212235476111,391.969459135092,418.718800329089,414.284505507062,337.148923341324,352.722971057225,355.409238695441,336.809476465808,348.804200506363,298.405317224853,420.85306669184,452.109136318908,447.196843693928,329.452849588551,330.702384613775,356.63271857669,368.773125933066,365.361332054305,402.885369582877,318.893546189209,325.44105637978,216.718989265135,448.826307361459,456.348529373236,435.887849238409,405.01596309879,406.52740247431,417.827597562235,335.099914196659,329.278430512406,333.779486618599,445.313315867741,413.159954274218,437.516294246478,446.325568410366,473.027838327523,471.304728992898,360.001445476839,364.365954950637,390.01634383638,441.82597272531,483.8944475945,444.757321963426,459.649240681506,426.470758612707,378.839794910771,460.878229796221,172.03279929717,216.491018201186,397.742539262372,406.703527302478,409.991673313615,404.787365367419,398.522202690593,400.982435045261,431.737422945791,409.525110602403,381.076763186899,321.239836306653,249.109237221367,166.914473549472,338.18593075146,363.384543861964,357.129084077376,376.297160032414,393.169328674119,377.503892305742,358.29213747325,253.613958297995,372.618863612055
,73,422.106707200954,281.088013204078,429.429324867042,377.525407967484,374.383785532034,403.336944220366,382.368654018146,348.234263174971,360.633080604164,352.043292523133,251.43050920773,288.387059703907,411.467783822362,449.319988317734,452.525427899401,428.597145476192,361.232960376861,413.605406389395,281.564328566807,415.020583648777,417.196738736621,330.723347883426,312.76189123936,345.336957517886,459.222110346886,458.959429049617,449.46352521438,420.839217964341,445.584366683891,437.783084935938,354.473255490553,378.177477230803,376.700271107441,369.523445843193,377.245768329749,318.574959724665,443.910247503438,472.859980802533,468.783879515249,352.360382039888,356.84938331135,382.137139664443,393.245753221231,391.676362075027,422.243809944343,342.208980019791,345.706319280707,269.035318299117,470.567988239311,483.06205884209,466.510554552295,428.451071259747,427.513156846157,439.002074953795,359.262037987516,355.763939200368,353.164312781313,462.417840662348,436.765144863037,453.29020855006,469.280326919102,490.009940348538,491.271741687742,381.923926424873,385.59646134676,404.673206932993,470.996459377494,509.118377672234,469.427156191435,469.99817271374,444.830639628464,388.907101934682,473.846983607532,142.845613411498,160.135733004215,425.894072188044,435.039192926165,443.770782771324,440.593138968616,423.498375664579,427.716681738021,451.597856142616,430.316331159288,395.514874017861,256.405284653984,211.020117652013,138.854326381667,375.086559309331,398.756400036079,392.948763854628,408.316656956521,418.89919443151,409.048060192783,382.277848276178,275.206729311033,393.138307989756
,73.5,431.324165314706,318.327392150326,450.725667573734,404.917431271147,399.127746009432,419.516052296518,398.878571663961,367.523149644163,383.511957484224,367.246849859163,274.430914054614,309.980578291671,424.451247565993,464.570358570735,468.289778696073,450.001380639372,369.687245247442,438.158711552677,345.163605482272,429.068253376082,432.473815528832,346.582919364158,333.128741292603,357.623840777983,466.93669879418,476.65683058195,472.186767322106,441.409526757278,464.08126870919,455.75849876817,369.352969246772,396.307275452342,392.745597092845,393.948004114796,392.789961674644,333.294991679807,454.921599237681,484.601781674893,485.221733962552,368.279221243925,375.964338511418,396.666797760019,413.15744638309,407.628699537126,435.995987274358,362.718304096652,362.755767308986,313.476246709914,480.196404324205,497.774962001665,487.911924842021,446.16878980297,441.791296944076,452.788658633915,380.738228855505,373.091029321875,368.90547169403,477.516459192637,450.994994644303,461.90171810114,485.033933630117,499.493855328105,503.687501968922,398.463288026308,403.665567311984,415.476461223929,494.614273629802,526.591533758574,489.637272150536,474.189329442302,457.100488133416,385.026266631007,484.301068082872,119.596205797052,115.466755533323,447.46018037445,457.59396103345,467.616820530903,463.641242898248,438.389283519997,445.622664675715,462.617082104007,441.111831873237,406.159754762843,203.388367613493,181.649984631362,116.423447356169,398.777449047846,419.198665025605,418.941814275335,432.914551132728,437.386970773639,431.637048046702,396.241597612521,291.726024937053,403.878145590189
,74,436.116052101835,361.561079267869,469.736360406303,422.778930544007,417.58106087742,429.352501071095,413.209904098558,376.886331755261,395.579419467313,374.139431387594,290.317005442582,322.847187278096,426.856023381677,476.693082371528,480.265811647379,468.146597607138,357.328927023325,457.603516030373,395.253808328546,435.596313795489,439.623400589655,356.101853542018,350.602096319448,362.009519419378,473.621148264875,492.08595916439,487.321759459754,455.526157391111,477.337386236631,473.634367062338,378.782102906764,406.651832504233,404.620823432008,408.031164233691,406.587599925246,346.488134712964,463.564663949665,490.348450882556,492.829875881619,379.115343063581,391.370902633015,406.662537407002,426.10854708873,419.194046422013,446.341865508507,382.038755529894,372.750002955872,350.546914479775,484.033416272969,507.288618207037,497.742425174121,461.017560605234,451.697616355631,462.507967443873,401.146148780679,386.720609343206,379.279856993453,487.707654778813,460.419220946033,467.769155012505,490.335125702802,501.542736750316,512.593815167465,406.686282481071,414.649573074357,422.759804614473,514.930194627783,539.284175545113,505.297252665318,477.933219457154,460.447863167267,363.159093776686,492.627945851725,103.107338061663,83.1095710448286,465.475802027557,475.997392999872,488.014170851662,477.955258663531,448.978633478551,457.316627914763,467.245885435349,449.774526698003,410.682341603984,162.660871239974,161.028316120231,101.541046630407,411.612094725114,431.53708165169,435.78367409241,452.731057409421,448.946599229205,444.17014595244,407.093883834905,303.45330306392,412.9357021061
,74.5,437.229178756102,396.955686148612,479.252221970593,434.985746946208,433.682514304602,437.340175925359,423.754930683714,383.513343467991,404.880617880933,378.185112790154,303.02328227931,328.130061632372,421.160530466776,485.66675816972,488.103971675429,478.630404342338,341.042237416271,473.111925599829,434.605107903116,438.322696695175,448.18101102916,369.357501636952,364.972920241137,364.46918999534,477.284188439005,504.32478317383,496.305345286613,465.660768621509,485.608825807535,485.569318013723,384.675173834414,413.304630956349,413.055789494468,419.573483812364,419.005516461095,356.480824160572,468.42211455627,492.366577769976,493.470509161871,388.574970675823,405.049805923596,414.035539935149,434.31358639779,427.371382957716,451.185392632777,397.120144569472,383.011360641237,379.730508653819,483.123018688439,515.680037640648,502.797206173731,471.330454199714,458.083831177015,467.035211932415,412.985284582114,398.521404942025,387.076644795116,490.820976586021,466.605851822013,474.013445168925,490.061175469993,502.548001503897,514.720444532599,409.051338432549,425.455830832615,424.582607170988,526.576609775839,551.769128562084,519.306853403791,479.796493876998,460.517946717702,338.278548503067,492.848840310307,92.4045291509051,61.5312865588136,481.025080793979,489.654625268743,503.562040921897,485.412218435589,454.258134827618,463.295988787882,469.436895768953,456.4681633959,407.073372078006,132.359394448448,146.946073119825,91.6062335280801,420.979275921281,442.289830848499,447.650328399707,466.596988802269,455.155819253614,452.055730205202,414.899586606362,309.227776679526,420.742862865938
,75,440.687014796526,430.886307641667,481.150387087138,442.771850995055,441.733249222253,440.716741058081,425.284843653196,387.16496925668,417.118191511473,383.513039647206,310.37267197421,337.894975123417,420.141275247697,489.30557103751,489.475232108679,485.221718257502,327.326743728838,480.376859891423,453.91466395107,439.117799865674,453.50988995629,383.339840399387,375.054869172342,369.3648441733,477.931948605083,511.138703959692,501.823178342291,471.012600408637,489.701876969027,492.664922233973,390.186532429519,421.041071321077,418.301157076599,431.116482515234,425.875480182227,366.281252151753,466.692347225558,489.430567614157,493.159323669739,394.838010343031,413.319956209906,415.317956068708,442.307311778881,429.789172382272,455.407896396765,407.485524760082,396.06506072519,395.195971989274,478.866920390276,518.797323198649,504.71643035292,474.681838477957,461.03651217869,468.093787484669,419.42320999325,405.314721783531,394.979499935449,489.870917833255,468.888758509177,476.699021116379,488.571260353623,502.011230533765,511.419546216666,413.201570247654,434.791455402286,425.637980549399,535.035711339865,557.991455022679,531.840163223987,480.48588536957,462.433976803147,314.948003178559,489.570654107624,84.3258529077594,47.7192253247023,491.317593846361,499.663460790254,512.177067074625,487.012481473357,453.484034018991,466.347496665596,469.119510708123,456.934708959638,405.302155825917,112.117760930913,137.496375209025,84.2322383283076,426.6010417362,448.105701117067,454.319785891167,473.849890558182,461.553938955008,457.29098021652,419.166121056537,313.233092893047,425.054992732343
,75.5,442.248668799994,455.114299445519,483.525945795568,446.876993129123,440.644092371903,441.405039869593,425.968411661285,389.993376883826,423.383483120225,385.246322406337,315.716880005747,348.472891785844,416.364521713042,489.504110559382,489.396706120032,489.361147762153,312.248997564649,482.854390531622,454.645224835998,440.72932857591,453.449316656402,390.081753220734,381.577841379471,373.214270952544,479.881033698171,513.325376901777,506.262552923893,474.587958070523,491.77168303005,498.610575099511,393.46996242741,425.038624068279,422.483600414466,438.834598669314,432.167909699169,376.391224543126,468.742793967609,484.249139622621,489.346706514324,397.699264887781,415.918914958713,415.282631054855,447.649887799425,430.90157305948,458.992594821245,417.039466854896,404.628202798797,400.011091796416,477.21289629723,518.006897395066,501.569332693958,476.493826873967,463.855487377664,468.877594706427,426.246004488292,408.797928906999,400.034802433708,490.604866278416,470.170010428418,476.361095250641,485.88637546885,498.640040833958,509.238918792332,417.229695907806,436.29669338061,429.454213079963,544.544273989809,559.796311739525,539.841965577874,482.466612388722,462.534941567812,291.295571146526,486.55847029352,78.1109258900752,37.9563581772245,498.227534238602,508.075352389862,517.773124469749,487.580072354206,453.325103713435,468.225451621667,467.2168481879,456.10039153791,389.051200875555,98.8409390892033,130.174702586677,78.9449257637384,427.222015849164,453.93992345445,456.190397310345,478.397176214227,467.968617177637,459.11269397863,423.631540792832,315.445086103438,430.564086301516
,76,438.499041851222,463.141732074661,482.232130756718,448.248390426802,436.997580251867,442.427916172428,429.9605470835,394.261692657542,422.969658823812,387.527178518594,323.279345667018,354.437494171361,403.642257283861,489.488390372465,490.93470887156,491.733033828112,308.853508455886,485.957934061949,451.667091361064,443.822011810351,455.013982402177,396.609126100085,386.565096445415,377.097380911885,481.719338115651,511.752261893255,506.867384341894,477.298743286769,496.095220106907,500.606413335675,397.752847758194,427.715678590583,426.380700435507,444.071670208394,438.891668233235,385.068522106388,472.947630006848,481.147416857605,485.296353316972,400.801834367779,417.45980906693,417.255228524196,449.347404108628,433.401749746155,459.80714207992,424.439923101736,409.024892074283,405.262802404634,479.351282633706,519.091368743507,498.474271363925,477.843332224112,465.138754402681,468.950649679256,432.001922553409,414.773848775309,403.180487914391,492.204081568244,470.045288542249,478.629243573424,481.843059261867,495.264070971652,507.301698175817,416.502484002085,437.165509332656,433.226259028459,547.940459930371,561.722432098098,544.621088780415,483.380612871391,460.88236997775,287.391635454635,481.171861108049,73.5042554658022,31.7846981690703,503.143651217465,513.915911784884,522.387541111424,488.091485548985,454.036540560989,469.324826465379,465.961928707628,458.989770444958,357.056464261848,89.2364223171193,123.015007794686,74.9289968698702,428.195855220496,463.440388492779,458.774548209109,478.228460338906,470.594627811363,461.238892782548,427.533034030151,316.606235881064,438.171906569461
,76.5,437.844135949231,463.583871488418,477.020196584414,449.493735673594,434.960826564485,441.317931069105,432.236196630255,398.924620531844,423.466137279791,394.123366457499,330.357205925934,359.47933796968,393.58481335179,487.085917929603,489.553136311465,493.332204820891,337.835276278402,489.653856722573,449.550660413211,446.996253852057,456.949002485126,406.73684073575,389.120969754265,384.916283245397,478.434860895738,508.271012596181,504.616632274794,478.261711440671,500.17946394202,499.599209258792,400.162211431127,433.347947554442,431.296430672951,449.476290533358,442.363376552644,373.137936423771,471.776049090324,478.152895763671,483.025788888316,407.517117162899,418.537921340396,418.617072334652,449.979236157181,438.738862527007,461.705447151224,432.197432230267,416.423582358797,414.924170149366,480.99848385722,517.494995463463,497.871698507518,476.414848553762,465.679567183074,469.20831363566,435.33550213935,419.743502297551,409.822964862073,491.929172048667,466.447003256427,480.253315364464,480.37401007993,492.220971701204,504.276110356752,419.278642047815,439.499397411998,433.973613993724,544.98724016103,559.933598454058,544.197388486004,483.272499744966,459.7155770513,314.61724262642,474.219713542717,69.6985151593173,28.5801984123066,503.683297137498,514.514656108419,522.566191688193,486.860492349531,452.433079602505,469.948660224692,467.374407520908,458.304554805701,329.734453588452,83.0096869235069,115.322094372647,72.077925561044,427.757054598052,467.633414528475,460.532236104792,472.085625504169,471.83241006214,463.458775056505,428.313305991586,320.75223791613,442.269234191168
,77,440.557933999478,465.579134219033,474.155584139291,450.857312729072,431.765605803126,439.882972627479,435.101459567494,404.168540075732,424.900895525229,400.145361942208,336.976307348953,367.127386552165,370.31363694167,483.017570658908,487.511373428547,495.300297260212,382.709265149172,491.210558316155,451.949359926476,447.766289142442,454.038248617745,411.64111180299,391.35248198685,391.845545057995,474.130876993119,504.096952638626,503.16598132572,478.100306648325,500.20642002237,498.43045972353,399.800104577073,438.873120497097,434.658821399829,453.325724679085,444.017974175914,347.896308127,470.971207112144,474.892208011653,483.005596860618,412.211782907818,417.379618361574,419.070514279526,449.381589294015,444.688351154546,465.322017064088,440.443456824539,423.487898665416,424.255609466993,480.945795590848,511.968760549446,495.903637360851,474.032732841892,466.135122591765,469.487270014619,435.704594179634,421.360752304917,416.723613731164,490.846382399955,459.936672499537,475.493660325124,480.53185361101,486.967175955057,501.871344109225,423.608059608448,437.575027999999,437.615731388361,541.198729002681,554.314119619297,538.203838469663,481.304854411889,456.907871767174,348.231812275584,471.24330765009,66.4348892512115,26.5555278293195,502.82604829193,513.051813321005,520.984618583505,488.018406978325,452.794879016996,472.046907435858,467.344937614507,456.430834943767,307.53936649461,80.9327774472052,107.864142448069,71.3962404957449,424.502031524019,469.37200370391,459.744706901224,469.159103784886,472.298683164915,464.14134523988,428.375670687177,322.852659225502,445.781979133797
,77.5,439.330468218292,462.381293028606,473.552564099601,450.594707080093,428.366672737624,441.579945318227,440.226411404545,405.877994949803,425.159601311304,405.306397472825,345.713710713771,373.116537534291,332.960833072579,481.027815033621,485.041403953463,496.448513868786,418.400552308643,493.383454015361,450.810413477806,451.528233206017,453.301762075388,415.953618291349,394.193147355369,391.589087104034,471.856238997299,499.59342392579,500.618721824798,478.116011717444,498.707177645256,497.245316699256,400.035569910922,441.871126937227,436.169479722857,456.889937124374,448.79550152849,328.456554244377,471.475347477628,472.793202102571,482.390234858286,415.385652566589,419.847762096576,420.456724807907,448.882853226633,448.102913945444,466.605073207989,449.181037163389,428.779054875145,429.690552431403,477.698754359322,507.515906771574,491.496001098559,472.900199685071,466.350519752535,468.650264854774,439.058269183485,426.014238187389,421.844075996893,491.515174964796,454.638446518703,473.131563358863,479.392267636654,481.241658450037,500.669919384874,427.865507641321,436.760882574445,444.061948256107,536.729775749662,549.625637951443,531.504580673322,479.523455874275,453.834384238937,380.198828111812,467.151425426804,64.3596294564193,24.9891940377767,502.425292395262,510.025068099899,518.633461081792,491.546177916215,457.515662246262,475.359484106982,467.707966091298,458.280623240467,284.726206719374,82.7214738498246,100.757259353973,74.8755890081375,422.811747045278,472.81737093303,459.779291258018,466.901379604504,470.215723597251,465.217187314174,429.001297146391,321.066590196533,449.876927194947
,78,437.011812520759,458.032625167357,469.690154743482,448.121524077976,429.412225616207,442.456003212451,444.851585434222,405.886671809597,426.353318881067,413.724143528873,352.942604585422,378.511922238758,305.348991997513,480.174137367269,481.447935622472,497.081429791887,449.79965503424,494.956240426645,446.966073251412,454.358570756277,456.738996863052,425.628134548611,399.792145835352,393.432578440794,471.591592753979,494.582160331336,496.773829150832,478.227890078801,497.21813956978,496.667811786376,400.899438927893,447.913354958765,437.55705833336,460.93461994053,455.458398204446,309.304209201175,467.610999428419,471.460560888298,480.077823827698,423.333921069267,425.914845088364,425.23380469229,450.432822573503,449.246134071221,468.29440412599,459.354360196447,438.848783599238,439.48935995473,472.147676450468,502.928364981676,486.163461815825,472.704522553277,467.993400267977,467.806984931024,444.891992881071,434.165977559656,429.65537081632,489.267346985935,452.014769257636,473.371175878818,477.819516624103,474.670991114672,497.674481882069,432.884308725483,444.407309933844,447.567222195538,529.925635363901,544.338935420996,525.478676179585,479.469908954373,455.06395139183,411.427344951997,462.110583422722,63.1823523364386,24.6556910460437,498.897806092109,506.587801568917,515.588871272326,491.390113017696,461.112271930738,476.20335477805,472.065735367104,459.188500615524,297.218155724786,88.5702344233036,94.1104560393636,83.2957875021131,421.539759561608,471.129637877132,459.213551327297,463.128335955192,467.235656033391,463.15509918999,429.062910457818,323.317285036832,451.415417664793
,78.5,435.549759301342,455.228850098827,466.279050810548,446.398773356655,431.487115791974,440.644546394911,446.736609938986,406.608543807016,429.460470420069,422.841842751669,358.523915201596,385.055564771341,286.775907385195,476.597910379217,476.859362362351,496.713791716364,474.928740610393,493.431143507387,448.464995049615,456.311105914749,459.271483447205,435.063910297296,409.027611609454,396.945417339493,471.120944458658,490.863633654023,492.176079343305,478.980973867888,497.539014864084,498.25476415315,394.427978496264,455.641574342108,441.132379095347,465.502408231423,458.410685753174,292.146795988938,464.770957669839,468.499303303669,476.936987774953,432.832543252092,434.500660058354,431.58159938567,453.787195069587,452.426721300305,474.096279527347,470.116877907285,451.468742068716,449.481809504764,465.264909144264,497.684104553708,480.507177834666,472.862176862551,469.933104661784,468.406796261766,449.825559052313,441.158519588997,439.39873752187,482.644818821145,449.435749579202,469.892757598321,476.138093736199,467.231776735547,493.041714271611,439.938326214305,452.465868765701,451.992800408975,522.233178681247,537.411374836046,515.796484401699,478.231822658244,456.862220497905,431.898423511479,458.180960209674,62.0648932631865,24.1993913704661,496.013731150654,503.739396016435,514.149013596355,495.071850628451,464.247461813975,475.698592325116,473.306179319917,457.656790333042,339.446745342947,97.2754327379569,89.1760555968003,94.2652539970376,420.847756577973,464.819345206976,457.674215449271,465.06356345434,465.002910056935,458.796627007474,429.9923472394,326.866746030762,452.555408644767
,79,432.145472562426,451.226911705821,465.089599840537,446.938448409692,430.279963518587,441.686765193212,449.780164643432,405.41791057973,434.824984040164,431.529300154548,366.0101825872,394.259058906715,276.280043111119,473.999622038911,472.57655012652,495.390714003556,483.871051187378,492.517814038797,454.254220414945,460.660275024862,464.948310524167,441.83622527422,419.618827194173,383.539137614232,470.933054728334,486.95687709522,489.204405791854,484.85759887675,503.392924075339,503.197329538768,377.084991416649,462.808270305759,447.298880644099,473.429879551826,461.923790013042,312.36930312102,464.306815560012,465.424431548161,475.31101842108,440.3070024094,446.643371335755,439.709486425531,457.390455727148,455.127618508734,483.914818051177,479.446244247484,462.289293140493,456.000023689272,460.019326107163,494.639962495009,476.356187522278,475.17245509259,470.783496653894,470.26735258499,455.209668498483,449.74165485691,448.683108930002,477.04754503827,449.102227558031,466.702512982888,475.019000754594,461.110358187583,487.685099023286,450.016631999614,461.332572158414,462.626079711011,517.190532285273,533.484728686692,507.676557654891,479.498790268146,458.667094456244,438.767906415407,454.518766206503,61.2500808540641,22.7801459998749,497.885664745935,502.33244782013,514.519515694735,501.325122510435,468.21356265329,477.232295991721,468.282250299048,457.370939081785,375.191970309528,105.351633715002,85.8010817079881,104.621558604982,425.463069069591,463.446877185675,457.756898861789,467.345966923502,464.621074784335,456.053364471375,432.377973498899,327.879638383345,458.244728821051
,79.5,426.967242201755,445.590674102189,461.862180984059,444.8911819966,427.651023769549,442.79506527375,451.56111737975,404.500098985247,438.654531202461,440.173664245667,370.911459430626,402.552545754848,299.707933268021,472.376830023691,468.576366429569,492.296651563341,480.406659890812,492.273724863078,460.826143435907,470.028271580144,474.829112380614,451.353081399893,432.351889427436,365.134333555013,472.269563348842,482.801039109171,484.534464777965,495.81413853114,515.977238373573,510.801730071815,358.775118298895,473.09882496198,455.551492937779,483.795961250599,469.828080376459,358.065636920471,462.521865802325,462.653450247872,471.603679611955,450.700537864177,461.298407808659,453.251722331303,464.86691445434,457.020889216822,497.693047579523,490.197330013205,473.794443894341,465.817244673595,457.621424865739,493.018933227155,474.839118292749,482.082806572039,474.705216142545,474.94556342453,465.816841680087,460.903966553183,458.32674172129,473.441208361038,450.736220969121,466.791754029902,472.865100585065,455.515743345458,483.705743216873,462.103891842432,475.544896249896,475.041577263431,514.984425613821,529.017830752515,504.388414793671,483.12631564801,462.662251977681,441.810624427714,450.616732012184,60.8127788063348,21.4369685906648,499.398393500901,500.977246811959,515.841667574745,504.733174828756,469.182199424581,477.48949433784,467.543407164158,456.926751456437,411.463971208996,109.997113389736,83.0329808593134,111.725370044466,430.969283087229,463.877980686591,458.933939901917,464.337728123322,466.524957400047,455.365478066495,434.456485993098,331.805783380348,463.649077637002
,80,419.421011808261,442.70371329325,456.945625349362,443.671266507449,426.667562958725,439.746411927226,450.69171821391,408.06189062519,439.706528740592,450.45931507859,376.024175050528,411.158602377183,347.973781269192,468.924603717358,466.657874365924,489.617461210212,478.644651179019,489.810199047568,470.331652377796,479.67173527983,485.665476718495,464.994673644699,448.901818449013,358.989520292543,471.609954509283,479.744337612064,481.009633737107,508.216587018131,532.428698953687,518.950758366198,345.711607962008,486.114738922995,468.51953030761,494.339623346272,477.040775420234,393.587456558092,460.980058252861,460.664415089393,466.271542081341,466.765605184606,476.982819243216,471.160672687431,474.899196768971,466.475463158765,515.884870165564,504.192287661729,488.590205560608,478.418874888341,457.015209443474,490.91708286463,472.483033359185,492.33394267387,483.019490366492,484.084978304035,478.613518816966,472.084754137279,470.470022473761,471.558101289749,450.469061764919,465.963630405826,469.895999728508,450.471280800506,480.395443776545,474.85617337581,491.048542622765,486.762992443536,510.567421289349,522.954797807095,498.863924725782,485.630290072479,464.418251022483,443.125459499325,448.647537799924,59.6652206496864,21.121082853148,500.71645421094,501.275416695024,519.449492282563,508.426005822876,467.273740769503,477.270982082107,467.876843891395,454.012817369864,444.29398126871,109.590038912815,80.3364627015292,111.447703290993,432.216775061353,461.606728068783,458.556315872352,462.235089059842,470.08275272254,455.160148377337,437.277474638913,339.611953157923,467.629128104389
,80.5,413.949036963049,442.859180108097,454.65234569336,446.009882947975,425.389553617337,437.536387351796,449.494427603677,410.366512359552,441.745042344338,458.59303323026,383.766336059109,419.711567552199,388.246111536014,465.203110822292,466.012677641321,489.603997169826,479.38884960337,488.389604543344,484.617990004815,489.188840556131,495.841643829981,477.924961844765,462.982858401399,356.937158013775,467.617678611193,478.34596583331,478.185601995544,519.950040861291,551.171879594101,528.728267240761,340.389653170935,499.485241225746,485.928413929505,506.124583005824,484.353365235167,432.373949458239,458.549872890957,457.848677583073,464.220623333292,485.951943591044,497.987480086128,491.583709867862,483.200764083574,480.786334682155,540.965231857115,516.700369598401,499.667309539469,490.012403218213,456.215766334818,490.280083151713,469.369683955189,503.492387399603,491.01803600684,495.835827348911,489.876155454576,482.575779369746,485.034252756849,472.347468297301,448.629567430653,466.083436154202,469.032892705459,446.801759784312,477.083664682888,491.357630960174,505.926729711744,504.052633631509,504.148422549659,518.78993888834,493.300898746995,488.404836455129,461.758567382828,444.879493604766,446.31546906511,57.3883522403306,20.5225032732694,505.939950419172,502.054291587802,523.168361089035,514.999028068698,467.27548003816,479.464106797885,463.547908536176,452.38674305803,455.835119646975,102.317387719491,78.0167486801681,101.871203590181,433.094294200841,460.194147775431,459.833168548793,461.255400912483,469.621527478178,457.346284562524,441.848933253023,345.025513313989,475.784557701299
,81,411.425209923872,439.329797844112,452.429073590342,447.015807847738,424.833899989344,437.708064202552,450.175323951105,411.787612322774,444.445046863184,462.619138991339,391.06955922026,426.144429069876,422.701232616798,462.890700250348,465.28059711305,489.833253508555,480.51492566355,489.54322787493,497.51050815885,497.843016552461,505.012594559705,489.673738975982,475.114123647965,363.692692476358,465.249089318929,476.90782779545,477.264721770926,531.119808512666,566.509862701894,538.676566859074,353.129020573811,515.392666152003,503.662932150795,516.275896321727,496.287359430596,470.824061401632,453.9743964578,455.099424310861,463.628534461966,509.837541400969,523.382533103306,515.762080776565,491.472820051892,493.913917736604,569.676107874271,529.372854569151,509.072949209462,505.028597005173,456.145210148963,488.167642781673,467.645750895107,517.463470763798,502.705579199638,509.764519573022,503.603364125292,494.047301701119,498.924159920929,474.22283682019,447.026088907692,467.01701927698,469.273042245827,443.33440634368,474.766309966061,512.141565536949,523.125239213548,523.14962769521,502.217324291197,514.744981874192,493.773072279212,492.824224300973,460.913399856508,447.678745528955,442.471576323061,55.1262088135657,19.6278845333431,509.379081751324,500.422161232983,522.879348139577,517.383895349383,466.826321341163,482.666775723402,463.656195929802,450.048812292164,454.299111205364,88.9462677554067,75.6231242975769,86.2672218003555,433.543095982059,461.021591608786,460.590303176268,456.322540639847,468.650884932135,459.281097032568,449.100119362332,349.729227551066,486.492701572349
,81.5,405.949443294906,433.396479928123,447.683325246111,445.510716331379,426.67687108897,436.515328532994,451.225817243124,417.091310978968,446.125841903079,466.441554108841,394.59371690013,429.798023176309,450.900077670519,460.116646650094,464.950468509418,489.811753283804,480.325740575952,489.031930827484,501.843017895609,501.778588825718,507.512780083625,504.254459010445,489.206045679396,400.958355616629,464.653857648385,472.996432562603,477.187577787755,535.134564331361,572.974110495014,541.32647151403,394.037288733035,533.571154599896,518.903849200472,522.637465146388,507.343919929379,487.595102973389,448.647923867369,452.872609223219,459.729149055722,537.362764490747,549.248142064297,542.863478578481,503.913730982606,507.313952677497,595.458742312198,542.50730134907,521.379528460807,520.570440044182,455.519463112552,483.716370907062,464.585778959738,532.752312022787,518.974883923249,523.4448504162,518.473811865648,505.723861051013,511.622181991132,477.886873565973,445.761736862127,466.947909076113,467.708830054818,438.579982686709,473.877704377766,529.631515910673,539.372143470662,539.604962007058,499.691426916482,507.809897397001,494.169021266741,494.103794106388,462.177828344275,446.70981476107,439.077015048063,52.5829037064268,19.8521618741509,506.569070558973,498.656388714527,521.772490639044,518.43229269994,465.01680998036,484.422076161936,467.547936327725,447.398888067522,455.451344542557,73.9183179945192,73.3567593686462,69.3765997837445,430.011048869506,460.74979214729,458.622977027321,453.07036370324,468.964816941675,458.636036289571,460.156405372734,355.440119399566,494.311900325309
,82,398.8669651463,432.327358526077,444.005590467801,447.643104122265,430.573718259121,434.107151201011,452.994861975618,420.64813596697,449.025513754828,470.655870158821,400.532717676531,434.892290944945,460.855252868056,457.014592138681,464.373867522857,492.818427734754,480.531147633238,487.264071278638,499.526854486185,501.750686177557,503.564146277003,520.023843787762,501.383918182939,454.757790499015,461.905378445833,468.498546753924,477.683589909257,530.173916082936,571.280056689878,538.49673162705,447.539556921286,548.67316498684,532.831139299575,528.625559043415,514.889677126786,493.176564964153,444.978086211967,450.230612694416,456.579540670306,563.566740766421,574.713884536536,566.91316212435,515.168073273651,520.722952357041,617.741327103219,557.812721021292,534.471494522032,530.456578573587,451.995831774121,480.301712841879,459.174297106226,544.275242612229,529.696553192247,534.315637235639,529.578854372811,515.279908539646,524.743660908882,482.906267210966,445.731659636604,469.073745058417,465.121503786583,434.537251491548,470.242145363335,545.120500528143,552.66050727303,552.73245775804,492.782149098962,502.610096194046,491.83925058207,495.200198563191,460.486042959285,445.012122214235,434.517956754749,50.1567385886113,20.192454718902,501.971881203014,499.017384337746,519.75386744384,520.840581079119,466.28774274985,486.692880903757,467.233523815953,444.835113789884,451.385705270395,61.2566673353517,70.7545883319905,54.7692101652141,426.63904971486,461.04439988074,456.645979190263,455.622863522527,466.398967147242,458.546783046625,475.340248583363,361.57661505636,503.042837136997
,82.5,395.586707460529,431.9030286925,442.524881400646,449.148466702602,436.062191790741,436.260899193689,460.0318140071,423.626478326364,453.180856659374,477.212549482039,412.453709936406,444.493093670277,457.30523867383,453.940681191325,462.782523531957,496.081490406614,483.674959056536,488.82295318332,496.836790464426,497.986824834219,495.561139622981,533.005250518783,511.901255393101,504.204698232817,460.787633991138,465.814588354273,476.59853651747,522.676925170456,565.497520252212,533.915638524444,494.272585999831,560.376073813315,542.364635787979,537.087024550469,523.963150006302,504.62848504797,441.381268778187,446.38261902435,456.477026852626,584.524864695253,596.056529752801,586.350086880775,519.987611786383,527.400079729886,636.682263415638,575.111506151286,547.066550141602,545.723071861111,448.644937533199,478.745377180492,457.016478969705,552.726145051754,535.599380773574,541.296107529822,536.42208811891,520.94574130097,534.51112753017,486.736390768264,451.237709313955,472.083143824979,463.057541321114,431.346453837816,465.591388928792,555.842591664939,563.91550408488,562.292079140518,488.400041803741,499.415215381411,492.394083992237,498.980232200334,460.124523930037,444.543067458389,429.455217839554,49.0904328299545,19.0922812604293,498.36492234184,499.008765776445,516.464441496345,521.03734879627,469.828898392112,489.081628916146,465.416825252059,443.088559127728,450.597291454104,51.9929072986242,68.7982478007732,45.2044304912386,428.481822886762,462.517760291143,456.011425287866,458.119895116322,463.160983696484,458.283203973152,492.064122317106,369.2022901337,517.306384363411
,83,389.614357152331,426.917818361941,441.584574971479,448.433433613873,441.503003931294,440.39889183141,472.405158319091,430.556169170182,457.656296637091,493.162820815339,427.682382210936,457.30093010496,455.718552603677,450.010094514182,460.925090316053,496.146183795329,487.328263975355,492.355654530348,492.08988465863,491.464498263214,485.71744203731,550.062787879753,527.090510767674,550.575647717749,461.364458684176,462.517070774685,473.440680025394,515.195769343398,554.891332261425,525.026210844004,530.377498358671,569.966277028849,545.631058735193,546.481281098596,535.516848452657,513.5681231934,440.290186171857,444.48942676778,453.528700489708,596.041046089881,608.289246534716,598.357504277138,525.068098378398,531.773260480696,643.75179237219,594.345944747128,563.618963008648,564.760731459786,448.73027496841,476.889113889029,456.478323356638,559.417765626118,541.379535244274,546.289522365128,542.384003205105,525.400692225138,539.429854432782,494.856875298824,462.547241019536,476.541924864246,459.72758857098,428.172781669949,464.501626086681,557.86994136903,567.465203109854,564.247339958897,489.377968116174,498.578381688097,494.198660179837,500.968194239007,462.167539513393,445.674632933119,426.376676450651,48.7195022903538,18.3993532834178,496.528930585705,498.632245060209,515.262673543858,521.018291772204,470.827130837029,490.847877258866,464.448905369076,441.312525248535,450.861550182899,46.2514344840138,67.3745670911967,41.1712668506256,432.759926966539,462.145992641024,455.120142544618,460.490724742702,467.097341929847,458.57202569922,509.012594396261,380.518985849829,532.644690994408
,83.5,381.209890318547,424.767298874624,440.218765521654,450.375263155701,446.052297101014,445.143365643682,487.154678272554,440.548315730408,464.89825428829,517.39073952231,447.898820415974,475.887319520957,456.512092309655,447.78240702321,458.925258457302,499.363547801719,489.69663106314,494.833320711835,486.24890779348,485.49483458636,477.089657243258,573.972907330817,547.076830839662,590.353194513763,460.697975923611,459.54016117016,469.02462704615,506.953911244344,542.389329840132,514.887526261288,553.547841086184,573.038881795983,544.999988761602,563.130233086997,550.227698228616,525.562702392779,441.389930656488,445.122213595381,450.001608477298,596.212847482631,609.794909722354,601.529534394444,532.310678888479,537.252685546301,639.364658004549,614.369935541831,585.269485528108,581.667874741372,449.486287678092,477.012277867955,454.974310673969,561.73412845842,542.727746021607,549.563808571578,546.293052954349,530.048174293632,544.451449607368,512.032750779594,481.935130576296,491.441156333696,457.164347081646,426.861827923501,463.341525907443,552.749775860687,562.679061882169,561.195652755458,497.481242897964,506.595848524677,502.137778940258,502.704216366677,464.24962609855,446.271517653026,425.533216887353,48.0157704427354,18.4493834801204,500.742449630932,506.20153577046,522.853306223589,523.549719436626,472.880684615552,492.867640793939,461.801031914448,440.470645350857,448.76632827043,45.0547340684107,65.548376944589,41.0153902461958,435.136836685267,461.374936429396,453.707233297432,465.878689312905,475.860402908718,462.180212095166,529.649425194178,397.262466952774,551.044516932235
,84,374.475224448357,425.992170072087,440.214477768195,454.917442804791,449.550515037967,450.198604191666,505.461486664571,450.754605183975,476.155522863673,544.949706854094,473.081722021596,500.68035216414,457.614785482569,447.624770786738,457.335482456931,506.261355027516,494.620530249214,498.585671879847,486.73398602371,483.419623924615,473.335399107501,597.772079266059,569.974011075742,622.286451838787,461.401315775779,461.772028423308,465.542977472839,501.327300242842,535.507842877897,509.799592406969,560.08760863159,570.791505030003,543.741447225514,589.253275064933,572.088160846095,545.574946267988,444.709412819728,446.581016858618,450.950215846223,588.56437686112,602.58191193399,596.424536124227,537.334478768333,540.089474089089,630.621880474511,638.583881813264,608.887796893355,603.929889324806,451.336891723025,480.878302968104,455.835083620443,560.420097020356,540.699018725665,550.369122423932,553.154444484093,534.772210473867,551.10258005613,535.386255542542,508.814318490153,517.16793154007,457.485526116738,429.129377792201,464.025441861641,547.102365330721,556.333753310628,557.432040602193,524.999460377243,535.603771458033,532.413831394332,507.317584908995,465.548097925594,449.904414038445,426.547054186556,48.1334237297152,17.8204255125304,519.683160323196,526.471073771584,542.266029726681,529.319523954775,479.788945203259,497.647346833223,463.317880171818,441.678741157614,450.004701937324,46.1675043834672,64.2423506824185,42.1605649958866,437.540007247705,461.59393375978,456.810319857913,475.90070812777,484.194661728693,471.992545231559,556.334162792929,420.179657424866,578.598233572909
,84.5,367.024332276456,426.347441023058,443.331588636153,459.065025969906,453.563104664537,455.645636753736,527.145763371636,464.562124282443,489.236294080084,575.815005135971,499.493337298352,522.28007803649,459.953223744685,449.628591213075,458.661249160403,511.121540357049,502.102026575621,504.724123164427,494.029622258057,483.490834471554,476.32911400612,625.442973075433,596.97514126549,651.992982238226,465.513333634461,466.635331629085,466.220342090359,502.398923980903,532.438933544468,509.156118311847,555.6984153927,571.166888743575,544.155313407089,619.364997105018,601.925770177511,569.882841129307,450.078258997698,452.226794594374,455.458312957233,580.16637367515,595.223504402044,589.041473696007,541.984105696643,542.286089099097,619.668749385323,666.815984607475,635.729242388285,632.248092363116,459.644410787627,486.636244687908,460.826751409561,560.013311314762,542.635206107519,551.673001636923,565.918846412435,543.238866379359,559.733077955373,563.13261045443,537.869931605825,545.224413878528,464.901605940877,435.468662281992,473.617665234229,543.281797593766,551.159887556684,557.237791496079,599.993143885464,608.168729707714,604.199236916414,514.348172080699,469.462235890305,455.979098481814,431.665952541992,48.3657633781661,17.3780097565906,559.478290809306,563.691936292681,579.718883641006,536.126402183674,487.221983615037,505.006690024348,471.09086016549,447.021564841102,456.956740806973,46.1696548381947,64.616257348584,42.293313008556,440.643384993903,461.845662539482,463.353201821929,486.9260863373,497.192652271625,484.624522974581,585.392851747757,446.354063695157,610.391701004737
,85,358.925365982839,430.738803336969,449.394577890163,466.572111325205,458.043284058732,461.056248385568,546.888671051976,480.046853473717,505.697745488759,604.989001829966,523.335386487954,536.265187042087,466.230793136114,456.824436034025,463.263021646032,518.374694350833,508.598280869257,509.50099439056,504.411966588895,490.757610959902,486.94333529121,668.461690336503,630.457356142464,681.356540452864,473.485582136992,473.051447417257,472.671204651423,507.17701608125,533.370312924016,512.580019285169,555.569468618019,576.648026089612,548.913874851577,655.017291118275,639.441165541171,601.287859172162,459.478473392617,463.596176075399,464.344083643467,576.87592782292,594.01444992566,586.625722803967,555.350568786887,552.655063145015,610.71077339638,706.105974577587,673.072637500294,658.224375381579,474.347903890005,497.488770824656,471.23696661232,562.295043160062,548.28102889836,557.509119979239,582.792441776848,559.261114025962,574.268776561703,594.082229789943,566.801237951653,575.954078730146,481.60652619546,446.310891537848,491.653917495463,546.443346096906,550.223690928328,564.475868437255,736.77745796375,731.749589135062,723.83974877656,520.830773557621,477.377424758022,463.921711459848,443.885872991272,48.1034721425181,17.6488874048763,612.097665300691,616.853140976756,630.784044983653,547.164531670201,494.11249229452,513.273348484388,480.898620114664,455.927794780275,466.079082104285,46.6978288318946,65.364018385064,41.3675088218176,443.914808254583,464.097795096753,470.019557235217,500.832171810021,514.405187954919,500.288695619345,615.742279967027,472.164746633713,640.093048399435
,85.5,344.425985473623,443.841893168023,458.637112382906,477.504449362301,463.784403343426,466.375515355955,564.788883199986,495.009955841046,524.378131280853,632.679977127167,557.074742252096,553.714801558154,478.471822219244,471.360419085561,473.689813065139,530.560737639719,517.262681697697,514.542267640581,517.208001722072,505.677417955534,501.57509342251,731.705006386136,674.625843175511,711.182493210956,488.020389916266,488.287192240939,488.1505812071,515.822979938663,543.687213261866,522.443016134195,563.743441534654,586.806346760139,559.557977270436,706.579874078555,690.917886879953,645.498226324072,475.241454520101,480.673157307347,483.642793476016,582.626747355568,600.604783827654,592.650681046797,574.851666513809,568.410435873597,613.354390579584,780.134416441491,737.203443772572,694.164210614113,494.680471577931,517.6957841245,492.367916815542,568.078333695696,555.906754809627,568.255452226143,605.947050135968,582.427856058449,594.867488313513,624.566568029687,596.640045242252,608.792285379003,508.585735292876,465.709655416695,517.384705180835,560.368654793941,560.069160441751,579.628321082572,915.530484785726,885.717947400636,876.711491596355,530.162956964973,488.102024477787,472.111857656608,465.455381673901,48.8819250626555,17.8454932638217,666.365000471865,677.656350367022,685.217230594185,562.516015559057,506.218133410083,525.700710123498,495.276824594495,468.030751072441,479.788450272438,48.9394229090478,65.9246619716384,39.9509630755152,449.01725615573,473.681302078635,478.284547693089,520.321727474561,534.981189989424,520.129474340737,648.828446843957,495.58411131365,667.533699252619
,86,330.55010839669,465.022963388509,477.755740752182,490.365961683902,473.874144653459,474.116218694807,579.627512886049,509.140117023313,541.216909510274,682.476305230799,606.360460216113,589.261802167743,499.969999848398,495.209382558162,496.283452350682,543.272910962901,531.765385810666,524.309247194691,536.301669145282,524.342667346131,519.450540722929,850.229923017016,745.301410306068,747.788032936853,512.482643237207,515.764889795676,515.130334275751,530.886215035458,561.881929539215,537.683881899636,580.523143252992,607.484630618429,580.002452592938,795.979556158793,780.491241119191,711.392169785888,502.073675014898,509.534575454263,515.556127631647,600.03014134762,618.357684127679,608.248348625505,596.819835578491,586.183600914538,629.961275632083,944.511204316484,873.827848124197,763.911111593357,528.556292502772,552.525677694057,528.053339310184,579.996239352452,568.232496466931,582.728275731106,637.421305282251,612.237900618937,622.008927463905,654.982925825019,627.332219844512,639.004627086195,551.806015184223,498.877118723699,561.140627200448,585.33986447522,582.283032331532,604.330661655611,1100.77797058178,1043.67439604202,1031.35868343707,544.769318682547,500.056999239328,482.962923872789,499.454555956524,50.9976741655634,17.5886424488949,719.706518449284,735.234522941822,737.041994870036,580.398550227016,523.461897603329,542.225197508446,514.899625297756,486.254620857896,498.760744471481,50.4626519926302,67.5531643340696,38.5187874347642,460.642502256896,488.72353571145,493.518601951719,548.875263622637,564.560299538499,548.164076624822,676.479186449417,513.361948341835,687.449262910545
,86.5,340.187825890231,500.927836437518,512.927033118903,505.924964898664,490.431269906155,487.426978035281,590.364466964742,522.409998169003,555.236418945342,759.26799443675,676.432771634135,644.181581005658,537.559060380486,533.20217755355,536.154086862177,558.971796233389,550.211304660046,536.71126664539,564.443187414153,552.66692086285,549.766041811391,1060.84514520319,882.674361749993,796.631988161419,552.505623512342,558.325942654692,558.439663128072,552.540447801611,583.628018434486,558.183432705755,612.102467306205,643.3244670035,614.185286495239,952.346699390231,939.728152262181,829.492414568667,544.381826585861,557.206108444977,563.124097649944,628.119467582281,648.838246489074,637.027593101738,626.555660407818,615.775857464409,659.857558804358,1217.18655706089,1111.95049708797,908.321753020663,582.138371141478,606.710062996752,581.925389166508,598.608087173187,585.686057068853,604.156709838739,680.456004853376,654.727567184274,662.884642361367,689.375539736262,660.895151253293,667.890893822427,615.655204657097,551.243727680415,626.170712202992,618.383340663637,614.084636967893,637.463721225427,1263.21524179126,1180.15823448994,1159.67481417036,561.731268697652,517.280645689226,497.693372486209,552.231087274922,52.6107028303983,17.6018992928368,763.838631884169,782.832058353581,780.202745345489,602.69590555844,542.238166787103,563.325405119334,535.223264400129,510.374014565863,518.825984506848,51.524232710404,68.8431295756161,37.5331524439448,479.528771426421,505.82960447427,512.85706594895,593.167416447637,617.529208667553,593.320750262513,703.08022994559,531.045770356104,704.946300477718
,87,380.041506945657,554.188483989294,565.597843758376,534.469066006118,520.728923425398,515.809065452189,611.998244034394,548.297644975177,580.387723304435,876.143431739681,783.936107772083,748.763027687953,595.021565840855,589.133636314943,595.015754157801,596.466318722988,586.425315756973,566.818400042387,612.462867018789,605.439558392021,603.821803146385,1359.25268377847,1124.40728478038,890.197032581814,613.434517222037,622.252895707885,620.308286505961,588.708448538633,626.021467644281,593.885152903661,676.706380828091,708.062328578894,679.730794926886,1196.14247712254,1188.31406747031,1041.77349046188,607.343735338428,626.120907316408,632.220321490535,678.722204681339,701.266969874775,691.214418373217,683.012786503874,674.390754738278,721.743631248839,1582.87577439419,1458.52040395907,1166.41286218747,658.073162642139,687.28478820677,661.735469866925,636.845766921541,621.677493219579,644.393776416088,755.73145579101,730.145108884929,735.60703366732,741.83120370452,718.061675249882,713.268320582094,703.909968593205,631.40448605269,716.612360721971,681.361227984648,678.462351933379,702.050404775978,1360.85956172458,1258.499979247,1230.66571679705,598.337220692486,556.344748988762,529.367305266255,633.586020219165,54.5126385868573,18.1049422692936,799.075766234147,821.009180724234,814.911143590235,657.04114167929,590.647351785987,613.009905896402,573.496779784344,551.47765050705,555.530640782443,55.0721697983108,69.1838847160402,37.9195401108536,516.22814174427,543.475162986412,550.323484275811,685.660703246935,724.83656711268,688.080820979144,762.490312455655,566.933849563344,750.284253689407
,87.5,441.544215083863,618.647791657631,631.044089399816,597.758411905485,586.934004067836,580.308083960746,674.804524721003,608.823491619743,643.403784246576,1048.96874112828,928.776769838012,923.355975473612,668.972089615323,660.932807720012,672.007922626574,685.365102042266,673.667025810823,650.608719952023,701.823181940925,698.085730810903,698.525129780069,1700.32156653895,1453.08499125596,1084.47013034945,691.98956288309,708.292438807377,700.131785554469,655.511143700351,704.960903041209,661.24349848609,791.363604302382,824.87244957129,802.061770604641,1509.09569749969,1507.4534651231,1329.79124823306,693.721081862105,716.373014516626,724.788179779136,785.27854994879,810.512276457458,800.749082138259,801.85386062595,796.910277233151,849.67919237476,1986.32030982024,1860.43188117604,1528.37614534968,758.445962666259,793.132380321652,769.100384956681,725.414617551616,704.434794005698,729.746414628724,897.807974201031,870.778941490162,873.755433391644,828.735793206756,817.991965789278,791.056991491083,816.014909847198,729.92802124242,835.718830362326,842.147995001213,839.477593707376,866.127298045363,1361.87656696301,1263.75510504195,1229.28162380373,699.720050310718,651.061784263957,609.565284708196,733.076320197009,57.4120023786354,19.4083662081828,841.569489516753,861.233962129021,857.259423802078,776.965367910465,703.79148945756,730.609535715889,659.389209644653,634.701774954108,630.957073125801,57.7857745847809,69.3481339799698,38.7094729456761,601.330010700292,633.779004886656,641.661267666829,872.187845018843,930.21818195105,880.153901664957,864.720728362901,629.250553649782,833.504037806009
,88,548.981026733736,702.853879679376,717.659298510153,741.9932618362,734.524696052816,728.305337368654,805.766107142188,718.937342401992,761.55416453177,1252.41794073341,1100.86589542722,1136.12600907082,770.520496165339,762.146791949218,778.521840756059,883.379562130918,860.467735229934,824.714198472295,840.002728744423,840.55866292485,844.305696340847,2019.11659140486,1809.16169590722,1354.28457288632,803.169723221206,830.43203349912,816.672540508648,766.539058236343,831.763190401967,770.773745362128,964.192523118488,999.050161937634,983.445899294279,1856.66657859145,1865.65184931753,1660.06003201367,813.545547199621,838.597083511602,857.756815437113,1004.5003722149,1036.7809370451,1027.6488960494,1047.68339673824,1047.21888866394,1111.2652729465,2315.60632961767,2207.14409348851,1922.12195689503,896.543397017654,935.16976422876,916.173700047179,926.48381111775,894.555646901632,919.306314912496,1123.56695410886,1091.97374202302,1096.20933740091,959.663183369053,975.45125279625,904.963245577987,958.265277297977,830.423281354236,989.765374002624,1153.39291349115,1156.36484826472,1187.21610047407,1285.30373620153,1217.01812250866,1174.47640439825,882.09771687104,819.853270386592,759.377057409229,836.604021065135,63.3977123237052,20.3406669424426,902.956878750122,919.439788044936,919.540838835315,1002.39159672998,920.443807409381,952.032870648011,802.97441847583,773.995798150403,755.33759410119,57.7461877657794,69.3070493044571,39.2502059314348,753.513105998417,794.569389005373,807.855586619322,1169.5931327995,1264.97290616556,1193.71807740354,999.858628468435,720.404962188131,950.527622702667
,88.5,751.785317255811,869.748350192026,889.804776729754,967.88063138551,961.807098983394,956.366088685493,1014.67475042615,886.034149752524,942.19160121286,1491.16910109821,1322.18668201544,1403.02315684132,969.306661950161,966.920541110781,989.19015689189,1166.71549171489,1123.31815600713,1066.2383007532,1025.82317642742,1036.58054502549,1041.19572105668,2216.5235707116,2128.67888789596,1640.40739482509,1013.79513302514,1066.93311304496,1049.2364182099,955.964417204744,1048.07492427677,956.337788709311,1189.46646356253,1222.30572971256,1215.20720199024,2160.33571235028,2184.30556305287,1999.4832573553,1026.25981939091,1053.41561967226,1100.75920945542,1330.7159062372,1379.19035495631,1370.97443689033,1441.25139787484,1436.11741813529,1461.83867191786,2439.43334185855,2380.24620025943,2252.67219595654,1122.07150183915,1169.06283503602,1164.87491376332,1292.55281424358,1248.364487477,1281.45794728109,1444.05917990425,1400.20557732381,1397.23632052326,1166.85274973487,1206.75693930953,1088.88550249444,1170.99507284185,949.329995861056,1221.30505894272,1552.57027269836,1575.69044043084,1606.79708150118,1178.15592695142,1152.52400343661,1105.05747547317,1200.39512106012,1124.60863999181,1029.11022599372,975.15570786124,70.8094701490904,21.082906255686,979.385649053459,997.599107139921,998.356499019379,1404.02097444432,1303.26677160871,1338.44245859605,1065.39596381731,1030.15863346128,991.875181934079,57.8533736166398,71.3656209790703,39.5381645754601,964.675031263535,1020.7258633735,1040.24567089276,1617.20036180435,1738.12406565381,1647.68230622564,1222.60244700065,871.125732202146,1155.08035348704
,89,1153.74448266076,1246.20561428203,1283.19130225129,1262.82241853591,1262.52890483514,1252.66092463587,1278.62824323254,1107.92227396944,1179.77212063352,1762.50724234439,1541.28695290368,1719.94812517561,1376.01113309559,1382.28501754861,1415.81412815753,1510.83984284724,1458.93531789275,1397.90386832911,1239.36273915474,1257.29458968991,1266.799122588,2210.44781010138,2307.16792404836,1909.12374760822,1423.85340776495,1511.45769272256,1485.68116228115,1204.50977585655,1332.92277324864,1201.81589550467,1471.48778443661,1505.81839820347,1518.39385549108,2316.15651592084,2354.285833309,2248.21625932242,1423.95367430587,1445.32326011453,1526.08385180962,1680.10480137577,1751.8520158259,1741.78245838256,1889.84870820999,1865.85814725575,1791.01719114411,2311.21202732679,2318.98033959224,2407.80881233445,1493.19318711369,1560.98651969811,1571.43372149291,1750.43038541883,1698.69331748251,1751.40468323772,1842.49758310249,1781.50346705864,1756.5402706772,1430.02128063985,1478.05441624381,1334.72022024146,1492.9767293743,1104.88379757455,1555.58017428935,1950.47801776362,1999.87495590998,2030.6959249018,1069.49845008215,1095.13054467714,1045.65411487786,1676.64134454764,1587.52120778292,1437.4253264618,1179.09612008724,76.7290696409399,22.0277487927086,1065.38583140739,1086.75608037598,1088.90350532443,1940.60509735461,1814.46141192012,1847.83215779344,1483.62549201579,1438.34304951261,1370.72571085138,58.5115847679738,82.5336817890723,39.7294178489652,1261.84907661096,1342.17640736585,1362.86670863608,2128.77507022692,2233.51626815766,2140.65045272647,1507.1790394204,1070.77832683236,1429.35050937041
,89.5,1680.52181355422,1751.92531341974,1815.77566575718,1647.07323415357,1658.22006879369,1638.63418854201,1569.00740022137,1385.05497764658,1473.04148105171,1959.28647670929,1662.65639558397,1954.59116044321,1886.9280058339,1898.43661123086,1947.21643905685,1922.45246715993,1877.21687708617,1827.5843531779,1480.73414493655,1493.37609196443,1528.1258064929,1987.59268730978,2248.92324303402,2073.39739487487,1929.01033931818,2040.57986894618,2003.66219302051,1483.56155840914,1632.03293144389,1491.49353217521,1770.56332660982,1798.96367990391,1832.41560709766,2264.36520704497,2311.98741414413,2288.74409966451,1903.7567112831,1903.61609335059,2010.78530129936,1976.54844632148,2073.19982949764,2061.85360359171,2284.28028377913,2236.12228469868,2044.05309417393,1949.05564070731,2001.19407130138,2301.73996186093,1904.1195388035,1994.67006491816,2010.17434521533,2179.29734088518,2126.67326044023,2202.63065568919,2224.27699387455,2140.06859592504,2091.72416649524,1676.4370864687,1728.84860441429,1572.26226894367,1818.50465039227,1226.20575589231,1878.75392110908,2278.91338647639,2353.07346872857,2381.26540182929,966.953125291873,1058.32703802609,1004.04232760891,2197.95998460387,2097.00459943952,1912.21220082215,1364.60662604563,81.3613543826982,21.7818744656896,1142.60389145982,1168.05715960827,1172.71155489742,2450.22178913991,2301.42156920755,2327.87213057537,1961.78799186627,1916.13961151157,1831.22897675318,57.2505770426668,97.870350672325,39.3515257144251,1649.36723235646,1763.91675746158,1780.77563199249,2525.29321149023,2594.26885627081,2510.36818043558,1764.98937639122,1310.85751379607,1709.33555155352
,90,2164.89888548672,2217.482586713,2309.90169502467,2025.09085904517,2051.02310461919,2017.53662314128,1863.62678335807,1693.56031496223,1796.47281597644,2015.53333274732,1678.974311939,2034.7670235987,2339.85869388879,2354.06477163105,2417.6492036738,2268.42084807286,2236.80049750407,2198.96440389503,1706.4502118955,1697.97606825882,1777.13841256617,1604.67713604392,1971.25851432641,2017.4339016853,2370.66868354294,2494.45574042368,2450.59696287865,1776.85030739237,1915.15675005598,1805.34800288919,1985.42990218872,1991.95490861378,2038.20069685914,2019.9939763725,2071.98116114706,2130.03989153193,2311.85066501594,2285.06000543982,2410.36404948332,2144.71864856136,2263.48832773543,2254.89890509037,2532.55702728298,2455.83628782938,2142.53563336214,1436.34102468195,1506.15944736703,1948.17873279228,2226.98353045731,2335.85901782758,2351.79240449634,2494.1990741837,2448.99833867302,2549.62557976437,2461.98516696573,2348.7634242213,2279.41638881157,1890.92737833685,1914.18180107123,1782.62161344103,2046.57564263082,1274.9821855649,2097.32031779376,2390.48380193151,2492.30110470728,2508.77992113887,884.049682715195,1046.74511477842,987.028643850271,2606.84397766499,2506.28210288699,2323.3384663226,1475.09767869797,83.4197094375522,20.6855794763804,1201.15777225609,1231.77374234473,1240.51549002005,2818.84301273842,2656.36001698733,2667.82395392974,2365.72996383372,2333.40892063491,2259.70523150693,55.206949220679,110.681037905733,38.6843956112941,2001.08274125044,2156.10536811213,2164.44691744219,2714.63128010687,2735.5910234537,2666.12201681504,1975.63625187514,1558.49525853239,1998.0862011905
,90.5,2567.47124783625,2609.51752294945,2729.02155596896,2229.04021588909,2275.21187784985,2221.31988439564,2061.64650880894,1938.33187677883,2047.62732863017,1961.66393375954,1574.94215186968,1997.13808867185,2700.74593243425,2714.54395392819,2793.43930327304,2370.18387326474,2371.79109788558,2369.67672122888,1839.25909547732,1796.21448889978,1926.00395367926,1160.72815199939,1566.17440937526,1777.77965084842,2708.45261686998,2832.70877917557,2784.0137209995,1993.84419256776,2102.30328199549,2047.28807384308,2059.4622674617,2044.53257550606,2104.8632050069,1624.44121658846,1672.61745231028,1819.56385372068,2613.07890429951,2563.10603721091,2685.76184845366,2063.37218930061,2193.18234012399,2188.6225069454,2498.02956402049,2392.79613923806,1945.547361749,932.864768546156,1004.32474754452,1456.69747206268,2431.08845193835,2556.71396892892,2565.00214435687,2560.53921293663,2532.15663578327,2656.69994570155,2491.84554139289,2356.56503239868,2262.62021148284,2021.15503617772,1961.22233188647,1928.31529884523,2164.20774065623,1278.14919727398,2196.39094412482,2167.41959919628,2285.41599366517,2291.28910177772,829.883662318053,1057.88415533541,997.973179974845,2830.09403956804,2744.31443557345,2576.88205749257,1531.04255265087,76.9522851889488,20.5548739157523,1256.15619547663,1283.97509543284,1311.54964552072,2953.67302940629,2786.33877473304,2782.24290898313,2629.54375317903,2616.37162023019,2566.42567801783,54.2258929465213,122.677184315234,38.4934386251153,2209.83112288868,2394.52329319863,2392.71660239014,2652.73061065207,2583.65805362048,2550.74736500876,2103.30231861531,1734.44262204782,2236.27087744568
,91,2768.36338327092,2795.06146824456,2934.08608148399,2249.54301818529,2318.41065365344,2243.04329514715,2083.21408945283,2047.53294031433,2148.96995993869,1726.45153013339,1287.48406431967,1761.30756929923,2818.67744238285,2819.53503541115,2909.65290491785,2275.63730613677,2325.17689316827,2378.28984693207,1854.68139386148,1770.90035187233,1952.96436657528,745.202886991,1110.38542474852,1447.02355409064,2798.7307813682,2888.36364013162,2836.50461472661,2025.06664980338,2081.73072560853,2111.60596092492,1989.66933877763,1957.36146618054,2028.58311298467,1157.56416716977,1195.62397193538,1385.05917637065,2674.27258639111,2599.40738819508,2685.95176460716,1732.55890883428,1852.08966172263,1852.73327914496,2133.74507842542,2023.48525225419,1532.31271294887,534.551659756232,588.755556121053,957.209964633736,2400.57115635621,2529.13639999197,2513.40693548321,2267.93270424354,2259.48623156831,2387.13559389469,2283.90200138622,2144.37753081846,2041.6737958788,1947.00405058182,1810.36492207248,1891.13266724715,2072.16610485545,1184.15317202023,2069.50769882124,1726.62220980407,1833.89938985355,1834.3521574583,793.108448348257,1084.05320189656,1027.89353158603,2751.05637275562,2686.82609729574,2566.85008176908,1459.25050948958,64.6673755322148,21.1368486761262,1308.23593131831,1321.67957907835,1383.63386076807,2708.79449230971,2556.107771503,2543.10713922901,2630.91358883669,2639.40788722383,2624.19610347143,52.7182959290741,127.642579880552,37.9133094595451,2273.79355362002,2470.98352591796,2458.19353301258,2242.14951926889,2100.04424084719,2105.39258868315,2025.20382240756,1769.81452305809,2273.53240394033
,91.5,2493.95120468278,2498.27577194473,2632.74736787017,2107.86457137673,2187.40372689657,2100.47477886579,1969.19507254794,2021.62577296371,2109.59985373747,1307.71224092452,909.697861728282,1331.38484750044,2453.39425585147,2438.26714913504,2524.11465851736,2025.45194430787,2100.47365831322,2180.06320418033,1777.26396079791,1656.11047520154,1875.71243426728,423.537981719155,692.516730566756,1055.09386886621,2420.33779810671,2457.73877994708,2411.13013799338,1907.28612057565,1894.64739363227,2026.29509149783,1746.07725394883,1689.78533064717,1748.47728152122,731.482909608832,758.089580412811,929.282576358105,2297.57032467336,2206.31395691605,2248.75470631322,1313.56538124093,1404.87473824722,1412.54593161382,1611.70423791429,1520.0252675102,1106.29410532496,267.856426043803,293.255723996677,540.588478414836,1998.94020788684,2102.76653111358,2068.99842316151,1756.82599874532,1758.61536922252,1866.13067464224,1848.89981135789,1717.73125072876,1632.54256554159,1702.04036817882,1525.4715249841,1680.13935088158,1675.88452882868,935.396681766945,1647.73088478825,1242.60043873125,1325.15550295019,1318.48391842813,747.250779362973,1087.80686872565,1037.5614002703,2323.44976711002,2280.57578300888,2248.886466641,1178.65736706548,53.6462093470685,20.9793074812058,1324.87705607055,1317.97913552262,1415.04023489721,2152.00503724941,2035.56601993878,2018.24292270401,2293.49987719916,2325.97727581335,2371.04806465312,49.0870769604912,113.107230003065,36.0949585446326,2131.4151127821,2328.06949502238,2305.45930013826,1623.24362213389,1477.99377868155,1497.30381198121,1767.88607609774,1665.94130110931,2121.33278637139
,92,1876.11366851414,1868.29134937539,1974.80245704732,1733.04872605697,1810.5327794511,1721.7439700614,1735.16103839263,1820.10661286443,1895.27457155823,882.122313231248,585.518968257965,901.398271918922,1798.24922560161,1778.4570886986,1846.83078667822,1559.66294791988,1634.2409906967,1712.92181607068,1565.27081062069,1424.9266182891,1637.75367072529,218.442228796018,390.355581201843,679.705935555454,1764.727095746,1770.90202557663,1736.35463685447,1664.31622349987,1604.89451472757,1788.74023237955,1353.00076040012,1286.5097939479,1324.64452016304,408.663703519642,424.714825877651,561.994558088518,1668.13381778184,1586.09888067923,1599.95813418587,906.002941925999,963.275956422266,976.558310035943,1091.65871988269,1024.63594624094,712.589361219272,129.189201296109,134.886464716882,261.139256504496,1415.73534238905,1485.3746373584,1453.8262673437,1221.31825856275,1221.42965971743,1302.76975091969,1310.74835240462,1202.38209763701,1139.03402339007,1397.48613886541,1179.94707224176,1400.98550857405,1160.33957987238,641.705940672763,1129.50932359972,775.810297151055,830.867262999023,820.801109593128,686.386893863698,1033.50691085267,1000.57596240915,1717.16950895715,1696.55455314896,1724.46527613135,822.176828973097,42.9288525638488,20.9457180507995,1290.12207893886,1264.3687513259,1392.64234947011,1528.67949428117,1450.95732914493,1437.59005232131,1754.06969934616,1797.33066916591,1882.21130718264,43.9682809360839,88.461588745217,33.0060825215159,1733.0809838363,1902.21005097337,1877.56224601368,1059.04239948686,930.680233611782,956.871476701586,1422.44611199098,1392.85805219666,1831.65128105222
,92.5,1264.53790497975,1250.20499519031,1323.67633867254,1246.02644618366,1312.2137149399,1229.67156051153,1344.44752812249,1424.68584654086,1476.61501197032,535.428005582326,322.133863552238,554.781602048364,1176.88846810428,1157.5948673073,1206.90871410374,1044.81810574882,1110.15908263541,1184.06154491985,1238.85666165489,1107.29657619129,1273.13816209757,111.650013097817,206.704014423937,404.198837617536,1147.50535675411,1134.93075796859,1111.34842491943,1277.92598186948,1212.94555291601,1384.23396382688,944.36636358399,888.748925275007,914.242809744779,198.618550031422,206.595566598634,305.668638795607,1079.15319517791,1018.37342169902,1011.08436649865,546.844165376084,570.032232399082,586.584236022435,633.328985183975,594.344332748898,394.214863230653,82.6163116410427,81.4604139676912,116.262801457085,892.338446637735,934.000520494569,907.5481155859,730.684744575854,723.582070090932,776.37801163516,822.082636971897,747.975360994512,702.669584472762,1020.05313547123,804.183960968141,1048.74456409197,716.228477318429,400.963865231816,686.728965830609,408.687984279401,434.684844854534,426.487650102568,612.40509481411,925.939322290645,918.032468349582,1117.88607736411,1115.08100661817,1159.61247816174,520.139159073858,32.4529819989133,20.5482373526662,1195.63968180209,1154.66928084239,1304.83083892693,958.699774182646,914.350668421453,908.491668897438,1198.31758548976,1237.14760073438,1316.00615008777,38.6189694126825,66.0718579711158,28.4872943476914,1234.20594552283,1352.71710589837,1334.12321887981,596.502634531987,491.598657489693,521.38949558101,1008.40503802317,999.913536101149,1379.31657737381
,93,699.097561988421,681.209546686983,723.627748334731,842.624152571669,890.996456397186,820.407358274713,913.046284939226,981.744292444422,1008.49576027757,257.962466736853,134.619665139255,276.113870917227,614.926605250059,596.210099727926,627.021408178124,660.617616170047,706.006710748983,761.923076294232,934.005069652537,826.740811961686,934.208865596002,60.1372487685389,105.43433685161,227.25457619281,595.587308683977,570.510580098588,556.356984135729,883.577657297666,830.66805031217,968.68913528344,603.424046348027,558.726710544622,568.551568129205,84.8656701734059,89.3796622303915,142.873876467093,557.216844239266,515.209352987105,497.713808379689,306.468184706109,303.989365706544,319.573941179603,317.245088545102,304.395353968121,219.092322034888,59.2596003223448,56.4770818245587,58.9005443806885,442.591741789179,457.907631696647,439.459240016131,366.773950427294,350.791878839902,376.554222693354,451.1050110452,405.979183265117,379.950777987518,639.346743836244,485.718873046576,679.146330589738,341.976937135369,195.13939937689,318.158070314901,210.634641769958,215.058395904228,208.483817055108,515.42064151817,776.105028628904,784.930491381543,618.566386515554,624.986661662671,678.747815304866,258.411626575047,25.2231552824773,18.3920324554111,1009.80968676614,962.193045567766,1109.15977576629,502.703482178622,484.287953494781,483.831637440303,720.908061984029,752.938618147189,819.005188169134,33.2298169682467,43.7267419871947,22.926920336816,790.787487256181,862.793399519374,850.653857824292,262.481373035664,205.294246993637,225.281073108129,622.198779284716,640.807081658413,898.390712067783
,93.5,240.399185413679,226.751239709602,242.414783701607,534.000662269149,561.484807897074,505.784279145219,572.942829529626,609.909814644372,624.612654952667,95.0836101073929,58.370108663003,115.272545727768,187.016162582054,174.977104272073,190.06344819493,379.391069222492,397.981769995213,424.650111632727,686.247034388453,604.334967381584,656.023927595637,37.7660148146358,57.5165295963906,111.905612776462,181.825370571567,161.354943129166,155.35996786392,586.395870152918,555.664272281473,645.047294274706,338.236588140118,303.186182456609,299.864390344963,41.130404623496,43.9777569572692,66.7020989264919,169.475911215071,147.024360427751,136.24551872724,193.433304938808,180.715059160478,194.159968998684,171.760646021683,171.706834955182,151.855363805798,39.8808262136017,39.3306246635964,36.0819680004421,125.168657637062,122.833515376491,119.982830051085,182.370057279059,161.278388733526,172.111557246704,209.854038872975,185.056634119186,172.435843950922,380.385719482665,282.800586118823,413.52152524569,89.3348480874705,52.9220160419507,79.6806942703439,128.768733178332,124.705403408186,118.659297961747,383.810150390598,567.89935588266,583.095008347219,276.062928451365,287.516945939844,334.252903593162,75.6143578067888,20.9438168370287,15.8641008167255,733.493149467225,691.776220266785,808.231309187682,236.940716028943,232.935236105739,231.745153119879,372.299185197273,396.643766209119,446.474798636666,28.272113832762,24.8065988720292,17.7333294576658,421.127676231698,459.594512679966,453.155042417095,112.898219628398,95.7525117705876,103.996889928847,351.787524559169,359.988234232955,531.72507143516
,94,37.0699633470457,31.0072293820259,31.856306560747,318.63235625596,332.24282025763,286.831025636863,331.749855075398,332.80172281068,335.498892031216,53.5696753592885,50.6689399672525,76.314077003223,19.1781631623937,15.7025567695725,22.8718500459174,191.628693229428,194.158376231511,205.526477093203,501.588371132318,444.322806601667,448.901889186044,30.4027335038347,40.8319625735829,57.1161374358547,21.0403072923879,14.0459629103681,11.8959368681031,382.429917086516,382.584982814943,415.806639338684,184.605479438804,163.273949626639,158.013340076786,29.3649926692468,31.329106239378,44.1767672494547,18.961833448781,13.1135579414471,12.4603104085983,146.408605034205,130.31572484746,142.532772022531,126.130027535788,128.557922342223,120.796427579361,29.5572190435678,31.0306859374225,25.5362771807086,13.5716759169455,7.9336868092015,16.2245962436087,128.115160135421,103.026332719966,109.923614248802,104.191027109155,92.5814038483603,80.2097805396379,228.875305585621,165.80196605342,260.16964655385,9.94806692541499,8.14192837629696,10.8698923378349,89.4397322904171,83.7239012621429,79.4372322000485,301.770939993702,429.861866349605,454.536430545637,124.556339783736,139.188186096813,158.208251884328,16.3783072409929,17.8185311517253,14.1934103699543,566.775370545377,530.13259179977,630.29481085989,150.836833033463,149.715489038353,148.695472432914,209.898990474453,224.982850190959,244.09217156232,25.0662161357716,17.3594405716282,14.007762855559,176.02656052945,186.367491546861,186.568097258425,90.8600367047264,81.0018810491441,88.3994846572811,193.43124046781,166.093731207237,283.746330588931
,94.5,25.2084671365382,19.3366677707683,17.9758658112044,240.062385258135,242.414131476973,203.023009506511,143.247130960105,138.415428132706,135.072169877382,47.5801280129837,46.7375009251084,69.8941540392277,14.0779832852234,12.1356921645299,20.7227483112586,129.856716973628,129.085768810561,136.735964712506,411.153300182993,366.712658487337,346.700496307752,27.5102814017594,35.6251024384991,30.9049382923289,20.6910785174947,14.6348448014643,14.1748188149555,253.695803300584,277.117447954217,275.498825763509,121.678229921101,106.842430733836,106.066050723717,28.4695030216807,28.8469295169932,41.1493140725073,15.5201160433586,14.0898800666149,15.9972719037888,105.757546405003,95.8089069325943,106.220765859587,98.4569192819547,99.7036573220876,83.634405645441,18.6366438924842,26.0968543682914,19.9326087899635,16.3207663616223,13.822203736626,23.5841703220591,93.7703066666908,78.1286012351029,86.6831868615503,78.864228445232,73.6836029145187,60.788525322836,129.619567938496,104.391716711159,155.253731929205,16.3798727223453,10.5071740310767,17.6097821808005,61.7168940292905,56.7719505471949,53.1471052977571,191.807889118966,256.914367196269,274.831085100274,79.8155654378073,96.7291251302163,100.404237611451,20.7718162669712,14.7603947927208,13.5955145061091,306.457455223624,281.934389072773,341.422696654966,112.50550174923,109.703350629366,100.636289963352,160.652887738402,173.45371060199,173.803331927378,25.1552077688341,14.8871498883715,11.7220863060319,60.6426501444021,61.0607363550516,65.1553707696409,75.1684805388239,64.3127655209322,71.4984675111333,110.438052510319,74.7168351127426,127.09169642631
,95,11.5885995652587,8.072791123108,7.75092292701106,100.663713096748,98.0285249359788,83.1699076710484,18.8813448830656,21.180955082893,20.6012576998203,18.0083991889197,18.679260634771,27.0845042035996,4.76354694681891,3.61606689263385,8.53015009881096,52.5606583954946,52.4752052980228,54.4886771562807,168.386902394956,149.836185760236,139.455999831602,10.7367500465373,14.5706031373956,7.45762986358784,9.90184319072489,5.55508829034818,6.06682354272073,88.2353254724579,101.417887522672,97.6705593395711,41.1991017304583,34.0965964117451,34.6771148716369,11.726472589913,10.8159885923776,16.7962959794107,6.45862450790139,5.14313369841545,6.17388600607239,32.2566948033169,32.1653845244718,35.9995608264069,34.5959153541664,34.2928243314691,20.8763988492175,3.86556803817439,9.8105325186682,7.33973992778374,6.71720804716927,6.18894787122565,10.6339721161518,28.6624940730661,27.7685309701628,33.2383258004332,31.134908788123,29.3859003969181,24.9811927976507,37.0453241891968,36.9317671293591,43.7558021556739,6.72178434224099,3.52943767534441,7.0793684988173,18.5756830102929,17.0022368675253,15.5244566902269,35.4629424899489,39.7478747083823,40.7323271248439,29.7377913122085,37.2334027357024,38.7772076115045,8.80336379527716,5.23968703894195,5.76758420751162,19.1551924529548,14.3090637095644,20.0659370463186,36.2273659928306,34.134112716557,26.5079697443383,61.3768846814004,68.3602544411723,69.4261416095587,11.1762779396797,4.90947004085376,4.52181590613498,8.42134865659045,10.4747237621632,12.4372874631532,27.2554405108975,22.1493011230699,24.9112004727245,38.1000599588667,25.638094401195,29.2797118576244
