,Cycle,A1,A2,A3,A4,A5,A6,A7,A8,A9,A10,A11,A12,B1,B2,B3,B4,B5,B6,B7,B8,B9,B10,B11,B12,C1,C2,C3,C4,C5,C6,C7,C8,C9,C10,C11,C12,D1,D2,D3,D4,D5,D6,D7,D8,D9,D10,D11,D12,E1,E2,E3,E4,E5,E6,E7,E8,E9,E10,E11,E12,F1,F2,F3,F4,F5,F6,F7,F8,F9,F10,F11,F12,G1,G2,G3,G4,G5,G6,G7,G8,G9,G10,G11,G12,H1,H2,H3,H4,H5,H6,H7,H8,H9,H10,H11,H12
,1,71.3480760686543,153.569866742867,193.633017392644,-2185.50798719706,-266.546684314124,-2011.81086640029,-322.863163019653,-130.334539565886,-493.60980141294,-481.88761013707,-309.222213455853,-307.270771721823,52.8993588973508,115.945935755964,98.8458291237985,-480.192309084665,-28.4882877649197,-16.848246192485,-379.770861730653,-562.072060751574,-2339.80749797893,-51.9831042805536,-317.775535511172,-52.1719519359403,62.4519004012827,91.3425994761719,65.9112221923515,-2042.38619315171,-436.751236396491,-199.587199958994,44.6489816468111,-399.535067333672,58.0090169036321,-195.962239671961,-172.824237965634,-349.490604573925,30.9044287256147,77.7748407043573,62.8147604446394,-478.407328510526,-234.953441893646,-90.9623000479714,-162.804367815927,-295.670983240938,-197.807923821401,-103.517144231908,-127.124157758149,-79.0615082081194,36.4212150793528,58.6232889516377,76.5476442591225,-646.349833319165,-282.1860274868,-222.650017491205,-134.535950773512,-129.448087294383,-326.499921970144,-990.975886587726,-452.309664336493,-760.902133630671,11.7601678187038,49.2165875653182,60.1225969720772,-156.873881269317,20.0314808876619,-81.55344555385,-74.2067503061735,-43.4596499572444,83.8800016744481,-623.996433947106,-9.00284553288293,-624.9953889385,8.251109390686,43.0929657273473,30.0189921592637,-21.9968226888386,41.6125652388646,13.3360959358752,-451.097747262425,-155.757355825011,-378.868425625467,-1562.91027698116,-607.002519117172,-869.717130186396,-43.3843187106249,6.10421782026242,20.8634233527209,-18.4130140217676,33.5392525605557,24.8266684214068,-756.112478854326,-638.698184005105,-456.624077123644,-545.797050703937,175.236933555096,-151.793155142135
,2,153.145215469157,203.560565537827,229.073471417961,-551.973904638578,-88.5325287736669,-687.949048972112,-52.4067139909857,-1.38145974996223,-76.7825539524738,-137.971640663254,-82.2813436846382,-90.1591516000117,59.8195175739647,70.5196849711028,63.3441592882546,-152.985344045534,-40.335125309186,11.468661157247,-42.2940427825997,-80.3691196252112,-548.942933148535,-6.7207250467236,-202.44450381968,7.49556578456395,66.9566132409709,54.135804735738,48.7836797194759,-708.293466261681,-140.12493384789,-83.0964207357465,29.2634110085055,-50.7413498886199,78.5133760121862,-48.118039969966,-53.0773035643469,-106.255224773624,41.3594724703225,47.2569021725849,45.0794880060466,-44.0514475843393,-39.2528352719,-37.9416337391376,-27.3486841727608,-76.3142615108482,-67.1110985616288,-80.6082875768161,-84.4688365254251,-14.6077347525215,48.8509255470481,52.8140240334105,46.523910957706,-191.989120217524,-79.9328153041461,-86.6259287420853,49.9385029919194,-25.0385709886505,-191.246977627281,-512.872248867428,-45.0469848020693,-97.7398339445517,40.135413199705,34.5282500254862,46.2652636002913,-28.4676973320311,30.1807822064229,-12.7907700299447,69.1596608121781,42.4572464697585,91.5670149291591,-129.62195666691,46.325389508258,-162.708119345369,28.7485054107037,26.0222152610268,23.0075914621848,25.0876557841393,40.3553860626507,14.1623873829612,-72.3185685744302,-47.9570870745938,9.02333648042986,-359.73675970343,-77.342939890128,-235.457865029884,-4.53355723996356,22.7184111300276,17.1013294531667,-19.4339235760817,25.9833074759954,-1.28021194796202,-86.8409187541438,-55.1334610323538,-91.2254866627663,-109.306501774669,139.082770753152,-28.3074719404485
,3,199.450846955512,232.16472721011,252.098361954457,-241.103005802088,-54.5180315977377,-288.634948983414,-15.8037565645964,3.43214525358962,-8.69762674214871,-38.1403453542334,-11.7153931675484,-21.565731123168,37.9303457293772,44.4571072971366,39.7942549992522,-24.2669387863334,-29.5888143124048,-23.9541518700808,29.1239500024349,18.5734698401066,-165.304855522299,-2.14310257766647,-29.5370967125837,12.1210294986067,53.8794022660359,38.0914595466948,33.75605889502,-407.643943226949,-74.4420855130902,-37.1807987288921,1.33503887542247,19.952396188577,42.0735442807563,-0.270260674073143,-6.18866862470441,-13.1571284150386,28.6358939313432,34.1574422915191,27.6465051983923,2.29059375406723,-22.713159915822,-6.44253985214527,-16.7058519779257,-23.8462808437143,-27.3969432485101,-40.5936569943251,-25.1443043600539,-5.68919830174127,40.2122907947869,47.0282876409929,33.4085195751923,-57.2915748892719,-29.5029992062809,-29.2998240490451,32.2320020423613,6.6641477079138,-46.1876135140483,-106.497829755584,-26.6000841388704,1.43045671235814,32.2613948812987,25.2821755319364,34.2241929254105,1.20480083585608,14.0074693167262,-1.02999801302849,16.189752688435,40.2743078399599,49.0766340758901,-7.81503580318167,18.2191350119301,-13.7750201701656,22.7464816341662,20.4559745615452,15.0273306176823,21.2418787182023,22.4859669031603,10.3283318170634,-4.92531406774833,4.63851217556839,11.5026332881753,-54.0482004152036,-14.2419959732215,-27.6183400149457,-0.20206001950919,9.39651491331824,16.2829971313013,13.5972672853941,24.7618041250289,27.9069892223624,-11.4878917402693,-14.9645317094928,-6.61164289615226,-5.84642069454276,101.999275667693,19.4650397337537
,4,256.356581997879,275.817035144264,293.052990341884,-143.722428123438,-21.7213223548042,-150.215810030524,5.35556149160584,14.9409731202068,-1.13087586037,0.85887934774928,0.429049671529356,4.49694822571109,21.3857555711675,19.9298979900022,17.4147324814312,51.6829981493829,-5.14745084292917,-0.85822030289637,11.6425132318836,26.4539138859291,-9.86002746548547,14.9038741450804,9.66145188112387,19.752860750018,31.0120322903304,25.4523716083359,23.6844158169251,-225.406800825021,-30.6994957618062,-10.6220523812499,10.7355279799904,17.4270088840349,18.3578827315614,14.6514502381187,16.2096516955262,17.4619715024974,20.3342096359693,21.4703334246569,21.4845454487358,16.1025973145024,-4.43848177316249,-2.79530690598403,5.73866754162191,0.534600890365255,-12.3436590907668,-10.7139506015264,6.13586255363953,4.7703127959594,31.8795046466685,35.5004053325456,24.0792810256644,5.89253080083472,-6.85549580803308,5.98293035432107,14.2090110265199,22.3657201258447,8.57301890328654,-13.8523231269519,17.4856505217067,32.3448987385891,28.7921115340241,15.8196920543151,24.7391506238127,17.4060078848815,14.2976201356878,18.3242550109262,27.4887586072882,44.8085854371748,30.0610990855948,14.5521897184772,8.28261519348234,14.0556746023103,19.6761312334174,15.9520812154433,3.74429352252992,26.9541720774878,22.6027043472996,9.67450106720935,13.432064179704,24.4775456947082,26.4490903518945,10.4390978106585,13.5527407707741,31.1431969597797,0.45703562050312,12.5291474303822,12.5602383889182,12.2940377216391,15.8268411551735,28.0331027761413,35.118399289433,27.8091105582935,19.8322863651465,11.4721398352776,69.3241494545109,38.585965819304
,5,330.50250213729,341.84833149217,360.419217888605,-53.0517876727245,16.5654862992415,-53.0679769740564,21.004815357298,15.2465807179979,24.2838951927406,24.6913947867806,21.908784346776,23.1088539281527,-0.353561126475142,2.36042346514932,-1.20766137790724,51.2302135637256,16.2470350807798,22.4167998775411,36.3428694422328,18.9216990581081,15.1737248762784,17.8206385493422,32.5789391417802,16.258873870961,15.7526335138209,6.04112645805617,6.42229827877691,-144.067402677418,33.661279175818,27.4021468087358,3.16660027670696,5.31170674421082,12.0919092735221,24.3345704866233,24.5112488021732,21.2568919172418,14.6504269495299,14.9289473087438,17.8553228809133,12.1466344025721,5.15813420726226,5.6956799088839,1.30885513800786,13.7193709958465,17.1083857201593,5.32680245995198,19.2676598447888,12.6348085187401,18.7941164410595,26.1729467649375,20.3697171883778,23.2586302069303,28.952440908668,25.107362226312,6.21856426110389,17.7222948255167,18.5219327626346,30.0854873830831,21.1413382552328,13.6957039592562,20.8734925769058,15.3416342414912,20.9012811684861,21.69366389076,9.44478533652273,18.3110055730849,25.5602482835575,23.3210551579314,35.7013230120219,15.4260254235705,1.27925781376143,19.3727964306927,9.8293471802408,6.0805639768123,4.92918406489389,19.4373743428259,13.3704682725511,13.8537183627159,23.3378710855286,25.1128043671379,23.9051907767953,49.4024423246756,26.9765153705139,29.6170719049333,5.86618246368653,7.08085964827296,7.21818343808081,19.0485680324764,26.1002454191994,23.9239913926485,26.4910355951688,20.5919776768387,16.182824424608,15.2077482441764,49.7181085285138,23.5500405246657
,6,443.091892666124,451.059838035208,487.646026171564,-23.0462772397241,34.987960042441,-7.44679336582522,28.6509640437826,10.4517715626007,9.46399763678346,28.7013432752274,21.5716716415282,10.1735065224038,-12.3341851741861,-17.4443274085643,-13.4256513654755,71.025241794654,22.7266500998903,14.7929234763815,31.6829906105741,25.2283278941559,53.6355400064986,9.55602723681386,34.5535883316188,16.7115714948141,-5.06125233340299,-6.6816947988018,-5.04992659510208,-51.1446345126024,72.6738099514459,41.7844451308538,14.0638406625676,3.49415507204321,1.07627108300221,38.283802776089,30.9729178483085,40.539705828247,7.66107205632034,17.2051373243539,7.28311811237018,31.8677641201266,25.4627646976842,22.6057782009539,9.35106575987993,9.378078235668,17.2810625568,27.6128441866094,18.2411040297129,5.35628535384149,11.9730364506622,15.6663648206495,11.0438479045124,63.571502280638,44.1630385729368,41.3445094064427,-4.77252773245527,7.9644068857906,17.80061975015,55.5694038197489,22.3586534275892,23.7079319716486,18.7645460773747,16.569157177938,11.2845977074549,11.4278136958737,9.91622087272845,14.0855184099,27.5707476828129,14.0502596904098,24.265295596354,29.3238415432661,7.60522187060269,18.6222390426647,11.043177538475,2.53980553476595,7.33536783433647,14.6148585686424,19.3692563328559,10.518880218604,23.6347481060475,13.2525827850168,17.2807405803815,47.2878685289616,23.1175680238266,5.98214936012482,6.81085796466778,3.92475970883243,5.75650894410774,12.0981596946285,9.95704879922596,10.1032803965436,27.7394739310294,43.3772758781251,36.7500814148698,18.7516964488004,20.5627977006952,11.2082621441768
,7,634.750661724963,645.299997808055,689.305717729078,-4.82105972724639,21.858062424215,-0.544717484321154,17.96377241747,14.3731385110204,15.8017407979405,41.2233636016645,9.80921742597548,27.5030780583447,-15.0057446549654,-13.9642532648895,-6.88882301058857,65.5423665665567,14.7373344320349,17.6380574756895,1.75725242570479,41.9928092306,14.2899690512004,15.2572183444645,22.0984562485255,5.35742992324413,-17.321936216199,-14.5984270727886,-11.911192813739,-33.8612857901589,81.6405895117296,53.4952367165715,6.99708501429268,8.34940315716449,5.15239374547855,26.6398401066726,31.0192731631478,30.6675208044235,-0.537575745859613,1.60835382030473,1.52637180481634,18.5779861871179,38.6624921370476,23.6222834006785,21.3598142658921,21.2648818879552,20.5609510561007,44.4486777695765,27.290494472355,13.3640484466514,11.4627897451219,8.66273653230201,6.60764398824358,67.4488400160444,44.410179539962,37.5027521622778,-5.97861847478089,5.45636144993659,25.6704128663068,48.6683375734992,15.6231799549569,15.8873156646168,15.8030268672101,8.40384231823373,10.0460793899592,7.70704149571429,13.9820969754246,15.860556440407,12.7953994558693,11.3909485721169,0.297498208546131,25.1681309599826,10.8295600509882,12.2171661930333,11.5675663680568,3.05359158360079,2.61808401601229,9.45904628458084,5.6926575034413,3.65306878588126,9.69295347564912,-4.56018434570433,6.09511569752794,43.2115605256768,2.30925952033795,2.05316094325826,8.889473015568,1.13373373366358,1.12423732715797,-5.81758678086226,11.1377947258025,15.033208314725,20.3071507214136,13.8871627067128,10.6522620515116,6.85804418569569,-0.540289644870427,-1.27911121616671
,8,882.509339375959,906.916027562492,962.510357965662,11.5775353607187,8.7240202976991,6.08848288145418,-2.79095387735742,5.8038809560021,-1.79349420365907,21.1793984007336,-5.71494257738868,12.8138576136389,-0.621154821487835,1.89451782906872,-3.4701070522442,46.4479488441102,25.0661136495146,15.0421133791733,-4.06070966237166,-7.69242598274468,12.4785311302658,6.62691337551678,22.4447918051719,-1.68547318236415,-26.0747518867302,-28.0237041235769,-21.5087659141145,-4.46929395333427,65.5294818057391,44.2066368112592,2.81313422234416,-2.53938064039721,-2.25896863289381,19.5334140257219,24.4337615100067,22.2968890415277,-7.74197474451375,-5.15181743304765,-11.2732908966764,21.3850732659266,30.4524928572155,25.2020277261054,22.9049501201171,23.5140351639602,19.8062996987082,30.489016193691,13.6269449069923,13.5842409514871,2.54206249136496,-4.11547017559133,1.91802170910614,61.0690010668368,54.5141256546158,51.2191310204034,-20.1419364712401,0.742978178552221,22.4987460778857,33.3827495187215,22.4519347114328,3.28087520074223,4.97267754638142,7.52684440933808,4.9079470184106,2.31568939489534,2.47077949365121,9.5197797735982,-1.07569925546431,11.7975111821124,-4.44462623386698,12.9626843503447,-0.367929025856938,4.80167556582637,7.23651826665809,-1.7810863082268,1.91534069942463,5.38368584122236,7.18090114010556,0.28346514997429,4.84434226656595,-17.7109170956446,-8.68168687481193,18.6015097017189,0.171663852006532,-10.0282193229086,4.93490644938265,4.73482368675286,4.15217873667916,-8.24544408382462,5.98249059894351,-8.15525718692152,4.89416320814962,5.56318894090509,-0.977825768739422,-5.58056681828566,-27.4609462616681,-19.0550218119606
,9,1377.83665855589,1472.72448182446,1538.59998569527,15.985395693493,31.4572270760109,17.1797520441378,-2.94921125616293,2.07836422884429,13.0152456826036,10.42592519139,1.56827861844977,8.03760029100522,57.4856805006439,61.9222529810922,55.6112018992617,31.266812005495,19.0232447193648,3.55174524728682,1.0586994853038,-0.68498090880712,-2.10611569560569,19.7134875235206,22.9614401372182,2.98757631179524,-33.6733763851653,-21.822047963522,-21.495229024621,9.96628684755706,74.6718958634792,53.3743471417529,4.05212527292679,-2.70515903890009,-8.34625186800986,15.2891058426467,19.0020206805766,15.5251484983783,-15.1567524461398,-15.9666168030026,-13.7371104380236,1.56815896225999,23.8270373872492,27.8748536912335,6.44099254112007,18.8577799890063,19.7736354984654,37.9839626478006,12.0650799645227,8.86763833011537,-1.32028924212773,-0.466688017323577,1.0987460685501,57.5564539693369,42.3328511000072,30.8903672006036,-30.3455715534947,-6.63637557879883,11.0604540219356,25.1191845101021,8.1456733131181,-3.58986413819366,3.91964630599796,4.80022837096749,4.38228382556008,7.35564356428858,3.41814374153273,-0.45504282933598,10.4928973487285,-5.10549932519007,-2.75966730054915,4.06140742276875,-11.0967489793402,12.4222430607533,-0.185487007191114,2.63005576967043,-3.88701179030159,4.13924555065296,3.46690862633204,7.48685438327357,-1.80082889275218,-13.6234424880586,-11.3472039799362,12.518950149788,-5.97874366008182,-12.3338416197676,3.92421535004269,-1.72168962196702,-1.6705004002506,-6.27650501164135,-5.83877855337505,-10.8983745388205,10.7228939385423,16.2383788237839,15.4882233164299,8.36496707178412,-45.0805380421989,-19.4827081575004
,10,2130.07582862418,2321.19712908068,2421.79905820248,27.250459423256,12.9185557890833,7.47111709566889,4.10685337068844,-15.9228597507099,-5.0295255296187,12.64403437293,3.13007885463776,9.59364187971096,141.418973712015,165.610946671464,160.665301316179,15.3530863418946,18.3113251224604,9.06589539382003,-39.3678340563165,-20.9167293753035,-4.67747313874497,13.2967022177299,15.0274318664378,-5.79345975205797,-24.7605414865866,-10.9987771040642,-16.1753912506147,23.6457374304628,58.548248514202,39.2160856156606,2.49326003774877,8.60544678447332,-17.6247010936495,2.99533275870544,12.0031642626855,16.3523392835559,-18.9758574291955,-14.4863207418384,-19.4773442968144,-20.4348370710322,36.1621066873377,12.6672316276308,18.2871201420057,4.53716938874823,17.3599864752468,33.1520628686376,15.1538815463418,3.11093079326656,-10.2621191801109,-11.797500364949,-12.8328556253118,40.8480801916248,34.0949550146142,40.6734737589013,33.0206370928845,-2.83353953688311,10.1807336603124,35.8119446333203,-0.182094895397313,-10.7145794685384,-0.478972356002487,3.6442775440928,-5.05048552169865,-6.64548182170438,-6.23292958215734,-9.8479038302321,6.07362084708438,-13.9272514931417,-9.93176216629399,1.19420048957727,-16.1087542509285,-1.82472437842807,-3.17229041307382,-2.33662954537704,0.605649274746611,-0.756145639819806,-1.32535735733381,-1.73272088673639,-7.11899139061825,-14.9035442699751,-29.8645392364906,6.25907972456298,-30.6986178225725,-15.8351619507484,-0.170825529242393,-8.66649194106594,-4.94839803535706,-0.660446863657853,-14.0387187486112,-11.5435337013005,-6.86663946797125,3.95405944077174,1.26101764811938,-0.694781735841389,-76.6329052220171,-24.7565032491875
,11,3314.90675597709,3693.46350010267,3880.0858186496,22.8783373436418,37.1383875730353,11.6939045353138,-15.4135573911408,-14.9340340891304,-5.59317271124564,0.600168256133657,-16.3835347418499,10.2609568967,321.995620698825,364.020051100361,345.78847373186,-5.25943955697585,1.22491761646597,8.56838560649521,-43.8126857241732,-38.6221233894485,-5.76608230177408,9.77531435283072,-1.17824443480458,-8.14560969182003,-12.2911541347485,15.9456661907934,12.9011422457888,20.8656953372993,65.7113145452186,28.260498060301,-5.88223891552116,-8.54785356486173,-8.72083181992821,-10.4214554218606,1.35560009530309,-4.89832834472418,-25.199606926064,-26.8016842973566,-26.2496524104163,87.0850286794412,15.8222232568587,12.6012877997637,-1.82672119411473,11.929717912366,11.7189028943994,18.6119728431804,0.00618713306812424,11.4504518464664,-16.9282207999186,-17.2299314322008,-20.4757316690602,28.492729342539,27.61032279756,27.3670408503895,32.9430405297207,-22.6363742365975,-3.30694625868637,13.9857756322981,3.30027507882915,-16.5530370584074,-10.1565812126419,0.974063442346051,-2.78034567330815,-6.71633844995995,-10.6867819694162,2.1124290997941,-13.0529471831078,-16.4713461557176,-22.699890642074,-18.3727657308355,-11.5283241448869,-18.3849006130313,1.7673078916996,-0.167768210029863,-0.516572187766542,-6.03682242844934,-0.942170611770962,-1.691291597911,-16.7014567301685,-20.6449811703951,-30.8430032797878,-33.0975248079412,-28.2786624461678,-26.043898372247,0.670769011420816,-1.27015276248949,-4.22545958969476,-5.99441635907897,-16.7244212533942,-22.4404705557054,12.7647929176255,16.3616544146334,17.0960859916049,-18.992652910496,-73.9200910778709,-40.0328519914638
,12,4942.7032763892,5606.66741635147,5876.35879017263,10.5628090027476,11.6885442473595,-5.30519236692817,-17.6567198598823,-24.1894421750412,-13.9304308070041,-4.27265560048181,-16.7541466365028,-25.6860684852809,581.842850703435,681.630357764033,648.992286007937,-13.9158345928718,-3.98692801676043,4.24979887593145,-48.8801783567833,-57.5831145859829,-22.3396329045499,6.40205500328921,-7.52981675538376,-11.8470629015692,22.7671833419427,61.4906586887482,61.2454858987749,27.0698822085506,29.5856614739496,6.14958086767001,-10.4157951751549,-28.7249944184223,-26.9568181747527,-17.6445347669751,-6.19546312907187,-11.7985550722015,-29.2481824824808,-33.787314109647,-23.5603464133974,59.7875143089223,14.6651696610679,3.31342738795138,11.0059479394113,-2.50814212214573,-3.65954086467536,-1.12295178182467,2.29606304866866,-8.50380875267729,-26.278122646072,-27.543438387208,-21.6332062483261,15.8586747097852,7.48046817772411,10.193970924407,7.09212431675405,-12.2189845473513,-2.35788755812791,-0.948705417235033,-14.2839588079751,-16.8008837364468,-1.32128374627518,-4.68472955871039,-8.86330100790747,-8.36371620801492,-12.4634716315268,-15.1323037585325,-20.8132389806115,-17.8873725867552,-20.4221454539684,-31.1863737379863,-22.1010317167002,-23.2245544967209,-8.34212135242797,-3.85522387799574,-0.600645634259308,-7.43569362527614,-13.5254679860091,-6.16890826285726,-14.348971100304,-18.1088315725356,-24.4191120242995,-35.7135788821852,-45.0404811989592,-31.3432149493692,-2.70276670129897,-6.45254924932487,0.483186549528909,-19.0437848778165,-27.6462204782238,-33.8609182315749,31.8585672491645,46.6454113959644,62.1219731277724,-23.5978942698384,-100.781687359111,-28.3492072917579
,13,7231.41420164006,8328.91910855827,8754.40364145296,-9.0761885624197,-0.0950384118968941,-6.95301103661404,-16.9446897182688,-25.1522398170873,-15.8629171007542,-2.82822128571843,-21.7400018147373,-15.4730625393195,1068.133033028,1244.1803060061,1193.37970364339,-53.1487788074064,-3.16964778004331,-9.47662119636152,-51.1889244467493,-76.9070701447999,-44.3806736543156,7.09802342550574,-24.0591121980369,-13.296353262318,88.4515577089705,158.582185381951,150.281213171135,30.2952470731179,29.352173784464,-4.47601802624013,-10.7542235394631,-13.8957299256053,-24.7171884666495,-15.3581461111471,10.0157050865846,-0.994177743158616,-14.9448561137706,-28.7859269499468,-21.7822926365698,30.7996017776732,-3.83858840071298,-1.15206508369192,-0.796500697639203,-13.8300000712625,-13.8900485922513,-6.91665659082537,3.17513450429396,-8.56998741649022,-29.1385226866423,-34.596803738119,-30.8702183788882,-5.79042193250825,2.19378097107256,1.35317543647398,3.34832143444146,-26.6733527298948,-6.81161179864284,-18.2641581433381,-14.6682152316225,-23.2255674751705,-14.4727147207805,-6.49914611220356,-12.7751559268208,-8.23905348315839,-21.2426123573978,-17.3251040450268,-18.0112461243098,-22.7478518828502,-22.9869112085471,-21.1563902998314,-12.2477924258892,-27.7177421403394,-4.27376151291446,-5.52549768157405,-5.08147757764436,-16.0335081052626,-15.6026075949949,-8.83069018336664,-6.59180842592104,0.649829986621626,-9.72056691195758,-30.6021193742399,-16.5287085457458,-17.2262391091681,-2.74239456874056,-5.92682040698037,-6.97926970550907,-19.2067837394625,-29.7873481114038,-35.1396136267376,111.004578826967,153.305850592906,155.208990828889,-25.1353122851269,-98.0005175940441,-54.6895603667799
,14,9826.50740238386,10930.5421470731,11512.0249006386,-12.1510079151685,-22.4191809950644,-6.53161623609049,-13.6743360925257,-37.8086916765778,-27.8399792600612,3.77079813586533,8.85898418876423,8.85424402958779,1939.00915547539,2311.32425780275,2204.51905379293,-51.7858651879396,-3.50046420961371,-7.06920544538661,-59.7426267818373,-51.9062317607095,-59.8252603298843,37.2190217475754,-3.74558294561484,-16.3763915831132,237.82358082527,348.131864981443,330.450305614504,11.1702729697517,-7.11639659661341,-19.4768777545996,-6.3698285451901,-22.7179432350822,-34.3817023586598,0.2808612935778,34.4460032804291,1.14261400036321,-7.8937170813806,-19.3992634294409,-10.2025880430292,12.680675346126,-5.13422084744343,1.02122129388772,-6.04986360327894,-6.1569317639478,-13.6037768167107,-4.60101985708479,-1.70654089688469,-10.7572080385971,-32.0030039618387,-31.5739520985508,-33.9851044633479,-19.504760858219,-11.7983769233524,-8.68478085051538,-5.33855211672926,-14.3915744300175,-12.1075692158838,-21.2124841742425,-27.7814858696547,-39.9491091462496,-19.2270970369154,-4.76766129215594,-16.9814206405126,-14.5002213629623,-16.3228866296413,-15.4904008475396,-22.5013399253594,-36.6452351224416,-29.0753228450421,-10.7577838164398,11.7555101290491,1.33022542116669,-6.3289562352993,-8.83650184542512,-1.00830365922138,-14.7067034489337,-16.1661065685257,-14.7316766338508,58.9642112677557,69.4959047112916,15.1821415131599,-9.94384934844493,13.3983618300517,6.88365507017625,3.59488045196031,-3.58962884314587,-1.9531030257167,-17.5804413267679,-37.2488447113074,-33.065311046058,277.40306765163,335.221707221395,366.447184627825,-14.6805221909653,-109.166174623782,-43.9727108455591
,15,12134.3402317682,13238.1000764574,13974.978837346,-3.85745076619787,-20.947214876589,-8.31101718385798,-25.5540938531758,-38.4199375140379,-19.1827714367355,9.23009159497269,36.7785084653724,24.7383305320154,3186.85812777055,3781.79587049349,3636.32165969958,-76.983266392006,-16.3338233334234,-9.77285448421935,-101.631364181394,-81.9424818621173,-72.1067717786482,99.9163734241229,20.6284979240909,-28.0860486981019,472.24262746768,627.603660848015,601.491579345221,12.7937961235511,-19.3584253253812,-37.7787782418964,-3.16098224754023,-23.9694717112579,-19.4466828633485,36.4584737493387,66.9796684191906,47.6178396599125,18.4117680484396,-6.64039706271979,20.842502700134,6.63978879084425,-4.07494410858635,-15.3199279399487,0.730525806251535,-7.38797812664779,-10.8818317897421,-8.37596650087835,-2.7185708963425,-4.71827832041799,-28.5931363871468,-41.7293615870612,-28.780238840096,-42.4164712576912,-26.4973852709609,-19.5837048884405,3.33327459514112,-18.5913032532771,-9.52426474149615,-27.4983760482846,-24.8843892615059,-32.4174958937074,-30.1610497242664,-8.92097391437164,-20.3954160914836,-8.59551067003758,-11.1189665622514,-8.74631880969446,-21.6677270087093,-32.8713945049631,-39.7858185185014,5.04201580828521,49.2723151218415,3.19991841932642,-3.97634141491835,-9.2525430149326,-6.81610722631467,-20.5167407510235,-13.4082806513943,-13.429741724206,165.408001374335,182.969900289754,80.0020371346836,9.28742600747864,64.3101813008852,52.8230112670026,0.121966944325322,-3.85398931963118,-8.50381138481407,-7.80405391476324,-30.2815364129356,-29.6804139528904,567.01774407124,642.437765915185,691.073804273225,-32.1423588133675,-107.626544321149,-25.2752111573591
,16,13961.9208571345,14932.9303511972,15792.1515490951,-8.45282592573494,-18.4500957881755,-13.3921732602848,-26.3543907057119,-19.0684761948633,-23.6572135617644,70.4528866086985,111.260034940237,77.5152564744931,5172.12110256032,6112.78049927275,5915.4786139185,-100.548955440931,4.26940699444458,-5.86743855157874,-78.6878843471241,-84.7613654266643,-33.5036543304468,208.018078796629,61.1132129899361,-18.4486321881686,886.240770241996,1152.33149047778,1095.73497646396,-2.70958161388808,-34.9507131548871,-48.6890225764801,4.24251429691321,-10.8550813329621,-11.6359945114964,129.338255733564,179.821652602081,143.629230785034,73.4074851730575,28.413177943442,76.8114631433218,-18.8157792575912,-6.41629662184641,-1.30762696530473,6.86870270961481,-0.879636907638996,-20.3611873380651,3.53405521921377,17.4998487292705,5.98722237927268,-40.9448741863171,-41.7765272331717,-30.3428905113115,-51.015355931313,-30.0894486928119,-5.63331937300791,22.9109520708807,23.8867620869405,1.76431969690111,-32.9031067758497,-10.2552173000113,-30.8865858891786,-29.6726166632689,-17.0932628400369,-26.0562445428977,-2.27689723411822,-0.200283677422703,-11.368754929581,-34.5068441993762,-38.581126915552,-41.413832331401,74.6675718691422,130.914742670602,52.9320278916875,-12.0773863702761,-9.92085395757113,-5.94666623546073,-27.1901609118058,-25.6542113482801,-18.5582533397874,373.909794878444,384.796495229624,223.893487246853,75.5129199391413,191.029816075032,165.88711357616,-4.49872214464722,-1.7327499686362,-3.1683562646831,8.55918022444257,-4.45630934195833,-10.9931467143006,1103.08764926158,1245.5765459122,1275.16149868177,-10.9106762578831,-83.3363363300014,-5.7796750415273
,17,15335.7306074837,16149.919655197,17104.4960816292,-11.122174152566,10.0267976509567,13.9846340293243,-4.98246452486183,20.1107236191456,11.3795853666197,179.586633618289,244.026861447309,187.170813046564,7687.60450313659,8958.02312061312,8832.58829222268,-106.333466978731,19.1164655956236,29.8121512229591,-68.8954049238746,-56.0307922484153,-14.7224467125543,368.086972803889,174.217896575316,-26.9076986841837,1564.75777926397,2025.86459168147,1925.74623769261,-4.6563109635681,-50.640441436286,-52.1770421578931,35.903156046219,14.7649901865989,15.7482135903847,325.596777890641,394.614071632773,320.339684998492,178.73443592018,87.2854652798114,163.389584222001,-20.0832919050772,14.4064480974339,4.39409665178937,43.2008172341102,24.7850441456285,-7.26244060622503,31.4012016663519,53.7436706346398,30.2127079478651,-32.5012432963304,-36.8444251724968,-21.9848907436062,-44.4062076884657,-13.8349476476142,12.5320625501445,97.2681781462652,63.832537784996,19.8470550817383,-10.0903306638575,-21.6068781381746,-29.0838049641807,-34.7762978024157,-14.8419776001883,-35.1078603057695,14.7516063303628,15.8556731441022,16.9011043096298,-36.0832351656618,-40.3254684351532,-38.0121419227871,174.089082457867,275.975011330129,146.701620758484,-16.241071454072,-10.8549798939775,-3.50170464831353,-23.1308301592489,-24.4325464039603,-14.7004395369886,726.688763178354,755.720352178927,473.807824024898,229.183367628077,414.280549452315,344.452978248628,-1.35309071536722,-3.89351013242867,-12.6626695407849,61.7213876591286,26.3201799457856,30.0471267848825,1950.23587699829,2144.83403468971,2231.93474574867,11.9495840083036,-15.3922449892962,35.3555266376989
,18,16270.8044295225,16984.5996029334,17973.5483732975,36.915661731824,92.593720779776,29.4098049683726,14.6861489060248,93.2969625851219,63.2875034946937,388.40906061739,504.358183437922,419.746127832665,10336.8608539583,11582.3487787177,11565.4170179905,-63.7856941721475,71.3013755391676,104.314000504823,4.78812245667359,2.15283098085092,42.5721971435378,641.764037042357,395.855160025827,-15.2748009196284,2745.44693951862,3513.94953698775,3328.34950891438,1.44874656488173,-56.4047082280395,-47.1531182291474,87.978406303806,75.2243648968652,103.113332782901,681.22177885635,788.816924098902,684.39610808199,354.708466786228,203.499453116227,329.030628559669,13.058539876467,53.2549952816189,58.4777142595267,107.132398172827,77.4649978253583,-8.81278843651762,99.5844829023899,120.836037037383,75.9657978817459,-19.1906698330813,-28.3173530726108,0.66231079993031,-5.58009104866142,27.8834845006495,62.5173888137324,189.193180509848,173.081619600678,87.2733748023893,2.89805740906195,11.8619859950177,1.68920228758725,-36.4046965151056,-16.8766888808832,-28.2196114623721,50.127920983974,57.8713559804819,61.3844972928982,-33.3983425299275,-42.6765734393057,-42.2000851801195,392.19979860105,546.10664436287,332.169794716574,-19.1784110730641,-9.1485425488645,-1.89831952079021,-28.5206106804235,-27.8740244715391,-14.8977537439087,1386.16227917439,1442.20761044024,920.029983766459,522.300355185724,813.343305381388,688.032329247353,-7.24115435236854,-5.38811171482757,-5.11890894066619,154.155852424525,101.263114984716,112.39735201335,3265.14039510877,3594.70767329189,3649.85236786339,67.6117486256408,84.2636844168446,100.2568781756
,19,16937.9526738537,17557.5780954601,18569.2312384037,117.369084614429,182.694216644722,112.193133478442,61.9603038132082,198.653843628024,163.820702308078,735.015140747002,912.66588531521,778.516735798083,12643.6776212296,13792.7070608632,13913.2032678422,166.118627307311,136.815263845427,213.687417151254,64.9364001258946,54.4609246413493,105.547242317631,1103.37261123956,751.100246316983,-8.69991201894481,4432.50442288683,5612.8882694959,5344.92181997036,8.13227168554295,-66.5553501518825,-29.0385498516116,191.424130146148,166.697939896067,204.224626060415,1268.63164440485,1436.86677639936,1264.09528724135,641.283043092599,378.340039574886,586.694526188267,64.562856587545,129.653700883024,129.145895650061,209.739307331358,181.598261620195,1.23826551162529,225.919835048376,251.792550982243,160.754289311621,-1.71771505217748,-1.70847034554845,35.82146211085,54.7100120933665,115.347376151803,184.023898334088,401.99357437907,348.978917293565,184.976462790445,38.270256298274,77.322976273188,26.9307077095727,-37.6464405169836,-23.4119900386549,-34.0953549944543,134.81327532826,150.841034044962,149.426541870876,-35.2969987613487,-48.0835777521215,-40.524472285344,717.84774426177,1002.33321797347,632.984972502323,-17.5347997859053,-5.17999023827269,-11.4788850441892,-33.9090822586495,-29.2848017255501,-16.7054565591588,2412.59803203469,2508.3903192344,1629.24532845624,989.579963475764,1444.92578556178,1226.79528118511,-5.92511237486724,-4.06087905308323,-10.304691320689,286.396642554461,252.101013907476,245.264803666724,4930.05449842028,5320.36061087615,5319.79122979656,180.818225292056,303.128087112178,235.39221894054
,20,17411.0543725449,17954.7960016943,18973.4469964822,265.848841233426,365.543916057559,251.489901226201,167.877955057484,437.937773648153,349.022218869959,1385.02627793486,1645.93497432348,1432.119348418,14419.2737133422,15402.1312304799,15658.3447304061,253.255645971143,300.470908514215,430.009204025637,174.341830355952,183.003862550549,258.120352933682,1934.70138754824,1409.02042302275,27.4236321458466,6963.81705106834,8740.15623897483,8240.08941635095,52.0355322691594,-40.3958586768968,50.0794714639906,374.259420657116,348.702668277372,424.764446834446,2307.73204836159,2551.30576494284,2254.83844306737,1152.31273612761,688.522118540928,1063.0230688084,207.486838963712,284.758824482276,298.851918895352,422.923984612276,390.698879368854,46.8593335925907,485.256445976722,516.970126152863,332.565509329667,45.3397883916768,55.8343172033838,105.262116148197,176.38685461601,266.42418417232,398.099294229123,770.53155564752,683.350015423572,371.107901707632,101.939404042869,211.230632824905,101.926764997273,-35.741805230723,-25.473909628372,-30.8368612878003,291.675077109785,322.133447954049,332.34801303097,-29.543397384291,-34.7966805596052,-41.1061563906587,1334.40602194395,1786.24617270082,1175.75094429122,-25.3082270656487,-7.64846167417545,-6.26139724978293,-29.9763693143705,-30.301299094961,-11.872235142494,4066.91519470238,4141.85311624544,2848.17462647255,1759.91864049857,2463.32703486895,2084.49518288077,-8.50170303296545,-7.9278975499783,-5.8732072275061,570.55051993687,507.884737236061,503.671958321089,6852.76261669123,7211.45285546853,7103.83363362216,364.793853907888,660.970460522154,473.221243720869
,21,17774.1505203443,18240.0453075578,19302.267312605,516.267420511676,721.443323195295,507.24043679297,344.758088925784,839.990566249007,720.806544679413,2470.18918324843,2778.09887294998,2537.12007566021,15727.8196694824,16545.1726880431,16908.2719999581,457.634316766656,579.980971197698,804.971591710164,447.118989157843,396.207433150024,536.943122015922,3283.45169013499,2551.75675714091,84.6965101510623,9925.60565602681,11864.2305788576,11442.583789863,137.20722542562,266.29833080049,175.498051759352,709.442584855457,675.285445368576,826.96281952057,3927.07996656713,4220.5401386475,3839.33829659545,2065.33781614283,1220.51352242337,1887.90119505116,485.469679446318,584.341219267026,602.989775540309,803.289316291046,745.65063574021,122.044192847021,953.119732365693,1013.83122862597,656.73737935488,124.007992239024,142.060372685762,232.228967400696,457.665483194327,583.942758332469,797.243999134724,1439.26257828279,1282.88312420196,702.721331073411,270.130248934156,454.119966895823,262.658076491965,-29.8073429966516,-20.9896102854509,-27.6116456919317,583.953088108314,621.112020838954,654.97386386173,-26.0481510174941,-25.6707583193356,-23.8584753968053,2390.37691005099,3046.86917600357,2105.4450880269,-15.7624879341629,-14.0880323719603,-6.22250856029041,-19.1069661470847,-22.4272296465715,-4.68645913329419,6308.70827176635,6342.39671434273,4677.3715105629,2937.61369672057,3850.23798636901,3369.80302150799,-7.08271730485285,-7.92876849735148,-6.23795870793583,1067.37190216786,980.551803769308,976.557739787117,8556.3274237311,8929.66798644324,8707.70936801959,709.90988282991,1300.86321818902,928.263050447144
,22,18024.8607709752,18464.8667165599,19536.3029581038,987.713183989017,1335.81114576571,990.553644203454,715.023634958513,1646.89131886419,1392.76512757242,4267.92339104611,4378.92007646152,4199.24216121532,16620.4482419105,17321.799463732,17749.7903069601,833.808315596794,1097.74697785273,1489.08212387742,890.295067863466,817.611852177346,1067.20597379304,5406.48203308457,4394.25102054644,188.896745699764,12560.2259709695,14635.787196865,14209.8472383661,300.998137120072,396.347126798168,419.594232491028,1366.86173794436,1310.45625491646,1555.26366318025,6276.71844504886,6578.09374055596,6069.66323368031,3670.56501473519,2196.34285134154,3353.13398510485,1016.12727341029,1179.09927325153,1209.64456673799,1562.0323320219,1440.20840570406,283.532544811038,1893.4394702683,1976.91400337124,1284.97213922934,278.369683884088,319.959757340098,467.446147666481,1002.59331870402,1209.66073579666,1565.11760172129,2671.14522423715,2392.4289929875,1355.98579690359,565.997645290783,946.723542348413,562.980983940866,-18.7381895851577,-26.6104084440285,-16.5538289023407,1153.36292698098,1219.90344575116,1288.47162002561,10.4377363297335,2.17867245043453,9.77987795035369,4128.28163231332,5033.2103732007,3655.74094617314,-15.2797409227478,-2.20719363676471,-7.02344255592288,2.91186238068985,1.28652956831684,20.9925556955977,8732.37501166697,8611.51432261782,7080.27602076229,4613.17071611115,5623.58506785401,5040.81071519117,-8.92303004316909,-5.85888522890946,-11.6641730366719,2018.28024195902,1849.51840984973,1847.87047249248,9943.67914714436,10268.6269036317,9945.80630287121,1385.18955342169,2386.19329915328,1753.30196906911
,23,18209.6222260626,18631.9219678929,19713.5795051671,1620.85692441851,2150.54928232172,1659.46709761099,1300.65063251811,2791.21858633252,2441.37181718698,6318.34389547782,5881.02813356742,5993.20292608165,17230.6279511393,17841.4687838996,18316.9913390883,1442.07736311735,1852.80003012553,2481.65299502988,1422.42981294424,1414.05172422236,1772.59309633375,7626.07209078748,6469.2380167762,380.600666632551,14662.5328222669,16729.4036335175,16334.6104768471,556.089493709511,573.039932966682,805.111123006114,2308.60057779678,2218.30274255466,2640.24273257068,8333.45420872195,8485.11843523884,7966.81262637286,5960.18231835511,3653.81840361828,5471.90545606256,1900.19845362881,2085.7678752719,2153.93543903986,2701.33970424673,2518.16915937673,534.077754877353,3301.50632227689,3433.01472942344,2290.98584600089,515.039415937445,599.86728469675,832.369254695136,1847.28574239007,2156.91461695986,2747.0770988949,4428.21747042387,3959.48602752698,2374.17470169691,1079.00438181274,1713.43427811084,1074.06940033632,13.3723406301597,-15.7716111215632,7.37962340753165,2083.47278759535,2158.79234151762,2303.01254359143,48.001404314934,63.5085048027868,65.0523379212691,6323.1384299932,7225.29842882925,5540.98652226241,-20.0634584103436,-5.19481662233829,-10.9464741102638,46.1921285898343,37.3693458413054,67.58027422143,10762.1771480572,10465.0055586356,9224.22300839817,6275.87029642404,7016.70514676302,6535.22519741658,-7.11740514662688,-8.53481127100076,-7.17271569819968,3417.70445432125,3208.25535911493,3213.22586490278,10952.3598898513,11239.8817323442,10841.9783992183,2412.95656771069,3803.03244025056,3014.48287890427
,24,18333.9283215123,18740.2428156183,19806.97843486,2552.51390892592,3194.88200540974,2630.36619791439,2258.96864053154,4496.68584291896,4037.24227553025,8134.34082761328,6888.84081526591,7365.04736947446,17614.4166830851,18172.397450292,18664.2240559462,2395.37360690356,3026.25247200694,3937.04613071623,2204.90882157885,2194.7130804238,2729.69332355649,9237.11391588367,8221.48540193787,687.437089839441,16054.6074567473,18063.3879203336,17696.0718607961,975.616361404704,891.813287780662,1393.7953023121,3732.70139112511,3637.25920237403,4267.20477581197,9892.64823896951,9905.95693427314,9381.28635790496,8907.83805697822,5846.95359694055,8359.12942615324,3290.21716725279,3541.47805049233,3641.38417692597,4470.07498695093,4168.43829320988,1010.83772202579,5419.72273620753,5582.71619126303,3905.07165153776,924.664551791378,1087.54945677876,1470.31334766478,3233.98973843866,3664.32467401404,4562.61208151656,6812.43178555662,6149.04192494498,3984.28642900061,1956.44717312516,2970.8956926576,1930.01679933621,65.5896657364501,-16.3212042526493,57.3119692979353,3580.2571648282,3737.17876262357,3970.13940914545,130.613884246817,161.769260393768,151.080870643159,8700.76013710651,9169.68374791195,7467.85150924369,-20.4654299868289,-6.64234705855233,-4.53752299163625,114.592606294208,117.173733019303,156.454895127217,12168.5410605258,11703.6873099703,10965.6397630412,7654.67855948367,8142.40908194847,7592.96831806583,-1.85140448554284,-5.26458898846522,-11.4401809642195,5520.91394922256,5312.11713212162,5310.07349463304,11577.1154744898,11839.1361179775,11408.8590111494,4018.35224160874,5409.24982848635,4910.75419782013
,25,18447.3941548418,18813.7702951152,19897.4045011043,3479.63628455746,4088.33305369177,3637.47658987727,3556.39445101329,6267.05502501515,5844.94248608855,9614.76699664787,7680.43442643055,8484.04208734259,17887.9630149662,18404.9119934605,18918.2167101858,3602.71330918884,4434.63078498036,5443.58057801162,2802.3385390719,2905.86579352937,3597.07011153026,10468.7260097375,9605.05302681662,1137.63629065612,17032.9329838227,18966.2619380041,18630.3320913517,1492.3410025416,1293.06627967719,2040.84624788837,5313.15480930445,5284.98672510207,6050.77596275153,10990.8957781621,10841.9593170126,10329.5994451275,11771.4510639307,8571.90719778055,11210.7470688881,4953.24537207674,5358.64688946344,5428.6263557183,6434.61249254718,6097.37024717887,1718.7356789835,7611.81960044598,7755.04827144833,5828.96290622691,1533.91562586599,1798.18976669534,2399.41298406983,4947.51283505256,5541.04289197211,6621.6745252379,8999.24736246293,8281.82736667523,5950.00164286591,3168.46957898293,4477.25478756464,3072.21780168219,128.706820141687,-22.7930925917271,117.93332568827,5558.48065046882,5781.82864601778,6122.95955496793,269.255271226788,334.494995333776,316.638856390688,10858.8745423716,10842.6306283059,9186.6645338646,-11.8732662186876,-10.950273074106,-10.445727570981,234.664591264335,231.090974185075,297.50016775692,13173.0749618892,12572.6317280252,12274.2382573255,8848.05775703053,9012.60738966635,8507.20973419428,-6.19030495733932,-3.75764298299146,1.4560490040958,7879.51847480215,7769.0226000637,7716.08468251011,12072.5061627851,12311.6248837027,11855.342405849,5862.9275409267,6588.87706980821,6915.60682947307
,26,18532.4176129356,18862.4329133585,19967.1512917844,4743.82052495376,5256.13787490952,5060.30146350203,5740.23931730088,8130.19019847493,8020.40890421867,10539.5239258575,8138.18456059003,9167.96589779476,18072.1380515154,18560.7506905547,19074.8978433786,5515.26161806899,6427.27159271694,7266.94339828848,3698.80485702561,3867.15733165859,4723.65550809338,11129.1469830774,10375.8560279822,2077.0783769698,17673.0708111777,19539.9953242127,19216.7337847578,2439.61886049706,2117.94625475382,3138.27732729026,7210.24806236758,7333.34205526677,8015.07011826212,11588.0691459401,11336.1693882029,10819.3254152223,14164.0819749403,11194.0295926764,13703.9379555929,7337.86206290233,7738.93156508555,7722.88619068437,8700.22372770687,8440.2558941227,3130.78896140271,10001.4956023532,10080.6774788547,8391.05361798576,2787.67991226105,3239.78271578265,4247.53261471881,7454.59750706437,7978.36155988539,9086.93901448069,10783.0172967885,10069.1951422876,8451.90013368149,5202.86122369328,6748.42749830815,4996.32281946403,288.439331760613,-12.2936531513142,260.852106721933,8414.7881935928,8653.42550030834,9102.93389043763,542.855590806445,709.890497285048,650.302874233514,12515.7778850973,12036.234219344,10492.7097346501,-4.51128769831666,-1.48912695878971,-5.72992991617139,504.398590517197,487.545225882785,604.435755534019,13824.0159885911,13144.6401073492,13125.7017200369,9716.01995585629,9640.14457687606,9150.21276259358,-5.10248254550061,-8.45097861583599,-4.15675504884985,10350.8389550557,10564.2873715856,10484.2365374556,12425.806493547,12639.0776897734,12156.6070426554,7987.20711450347,7497.69400647638,8974.8003465003
,27,18605.7522348188,18918.7166904049,20024.8335119637,5535.08272409885,5946.69124447204,5971.77541378911,7780.8388362529,9553.45370876898,9770.7364206932,11209.9810259022,8524.77282909256,9707.34020510886,18212.3027508481,18683.0155320428,19209.7798475504,7234.40819548707,7975.20852705721,8825.01902291625,4165.6283608372,4463.49467528994,5345.51625285565,11587.5193005141,10892.9113579827,3283.74523824008,18130.3947987535,19962.1658750813,19658.7915415044,3342.93013521118,2964.83580422398,4086.72577887616,8771.86048147946,9061.05404434611,9590.52194471958,12061.2474436344,11734.4020298404,11201.9726444852,15987.0064863611,13556.7030424405,15674.2801616222,8963.15116156542,9765.97897008506,9643.42207185564,10520.7492567384,10356.8662752763,4948.37551156183,11773.9819958808,11776.0328851779,10504.70095969,4422.33318713373,5115.59534713215,6522.9726734652,9415.81606011648,10099.2182483128,11163.9454020822,12063.0757034557,11393.5895625757,10515.3846831574,7284.31820445566,8519.37202370658,6849.80388021986,496.930112376013,-1.84256363110489,453.014949108766,11006.3746359359,11219.7386882736,11745.2457415764,976.705845529644,1267.67252485801,1187.10220571819,13769.2645113366,12939.506800684,11465.1787770262,11.8533705521777,-4.69042014665229,-5.82353369982957,936.280349389885,896.630141910577,1082.77865384724,14336.2529805591,13596.2192752275,13771.4233336412,10416.0286757797,10151.10175332,9675.88033718526,-3.3245527659974,-1.94207100756012,-0.702349056871753,12275.777335482,12813.7086455189,12724.0560616708,12704.1748210072,12917.2726009624,12407.9001919621,9652.96572166838,8134.41628856048,10504.5534373358
,28,18639.8541735708,18944.5318789511,20066.1046260671,6266.66885431279,6591.09018073336,6823.19870127613,9649.38861628856,10462.3183221337,10965.8140526038,11633.5848816034,8781.82087197147,10053.7110918256,18315.8307560443,18752.3457136645,19297.7073777228,8831.5754639769,9356.14587811731,10006.386588202,4639.2681318042,5004.77811130155,5909.79108595963,11870.6389544775,11186.1067838066,5082.75919052865,18424.6135335177,20234.3418897843,19927.393332049,4463.97719644304,4081.60935386998,5149.63571888915,9894.17699571267,10336.1191526198,10662.9904565429,12360.6785534114,12001.2717845548,11448.2033272312,17148.6836022643,15259.0703837125,16944.8639393243,10268.2309987901,11255.5784662499,11016.6897096505,11742.8511992048,11678.5385058548,7492.88414057454,12795.0562042918,12708.8224188726,11931.0809188178,6866.51527775503,7883.42099491396,9578.32372572052,11097.8442671973,11739.2279998358,12681.6040615542,12778.6400932796,12148.2599495224,11944.2180924373,9279.30923294559,10066.1228665853,8609.29748032332,883.838196655499,14.5952845129723,799.717557064055,13081.371490526,13243.1278476164,13807.2795574132,1759.96920108766,2265.15313701001,2132.91248879125,14592.3549554268,13528.761383429,12103.8776293809,37.1345069268773,0.175895604669677,-2.45070007324557,1696.95215524215,1642.50888713352,1945.22766213759,14654.5979728104,13878.5545536207,14194.3040332802,10895.196550938,10510.2783145874,10025.9836759642,1.06064309774683,0.687835022577929,-0.258519751328095,13500.9404805979,14318.3040455089,14223.8167703762,12870.5693121185,13075.7806661302,12557.3600329804,10729.5457350174,8529.19262607536,11416.1466058287
,29,18668.8764447909,18971.3456548298,20098.4674302909,6921.73960366027,7138.01282343103,7542.92982408833,11185.7872722663,11129.4655797637,11851.2781954094,12002.6042836003,9017.40975339921,10365.9690412056,18393.4578337039,18812.131458157,19371.0400503443,10176.3138951694,10459.8351511876,10936.869767665,5034.24207765124,5463.44168653479,6387.06191984398,12125.4479389535,11482.9547862641,7350.22351371597,18630.8672497625,20441.2807381601,20147.406106862,5571.13272791812,5258.33197061732,6103.05299250387,10719.1576963942,11275.2318073782,11454.2395551625,12625.6021094827,12243.8121840481,11673.9326859326,17943.0559375362,16496.0636641458,17833.7084630212,11144.2656903992,12279.4605227629,11939.6654880946,12570.9141052353,12595.9622335305,10091.1732772563,13449.5804646524,13305.2560197992,12877.2069808706,9769.05912417752,11011.7283343495,12459.8887824597,12357.2909518426,12947.9869559243,13782.963467251,13299.0240133311,12678.1380218696,12929.6114162061,10955.6531832649,11230.3285689317,10086.4635723574,1525.57002819149,39.4239797555219,1398.4631474027,14572.7428886054,14677.9385200238,15262.033691726,3052.31324321546,3881.2968803822,3677.79352750346,15201.6572255712,13987.7053087428,12579.5732860404,84.3936836080329,-4.5134418732805,-2.9344392089115,3011.85370791267,2916.72492394269,3410.38452991981,14911.2918058113,14095.5547191245,14533.4190704135,11263.1046833905,10790.9688557636,10312.8876509519,-3.62755500666572,5.24115848360088,-1.54538543815124,14277.6626156803,15297.2142856618,15224.9896331139,13011.0027781763,13203.8193432685,12685.2156766591,11470.9471231589,8880.78511842156,12043.4170407423
,30,18689.1676931084,18986.495291698,20141.1522740815,7419.28277788758,7557.3961956,8105.82523185464,12288.673098331,11625.7976733735,12459.1376196953,12280.7175575557,9178.5461149087,10618.4782126531,18441.2254178044,18836.8394458256,19411.2601846062,11168.942063027,11277.0096587049,11597.0748528329,5314.22255307469,5799.06345529085,6746.75546648555,12316.5060080325,11699.2727137829,9512.27265805454,18787.205677883,20596.7821825412,20290.7326363983,6506.87244668196,6329.44008285877,6931.0659311664,11250.0533895515,11893.1134585744,11957.0214744732,12822.1169383595,12401.7459375312,11837.7089896246,18478.748099889,17327.1243098645,18420.89440147,11642.876091102,12870.2450239387,12473.6401319891,13092.8634195606,13163.9044586357,12270.7670311389,13879.6736734913,13690.9459853138,13435.8426225834,12384.4329474789,13784.5717186821,14886.5436617424,13171.1896353742,13741.205781652,14483.6502621905,13664.1747249796,13042.6764576892,13551.4316663746,12132.6534874751,11957.1031340809,11113.2132083374,2623.90211513894,98.9658176970761,2428.10300239615,15472.0700312348,15544.7638307188,16143.6560971254,4972.84222778063,6260.56322279658,5965.63268484487,15640.1411435567,14304.1608773042,12935.8400688477,171.423871235709,3.79179755218865,1.55690946065715,5125.12586595824,4974.74939457091,5724.82806010999,15086.6712224257,14251.7542194178,14772.4050065792,11542.9681327321,11005.8189343009,10518.9830852884,0.857373053494484,7.50758099248469,3.15317138624505,14778.7966678817,15921.8238619715,15841.9613655813,13101.5035209252,13279.3278392895,12768.5874465462,11982.4588863391,9177.57753761683,12492.1437477697
,31,18719.0217392274,19020.8813566652,20156.8559748741,7792.05281412016,7859.20869457751,8511.96945734257,13046.9646679408,11984.3526253849,12907.0262443157,12471.1705098143,9298.27753784514,10792.5061378514,18464.2285781027,18853.947023065,19422.593399721,11862.057160978,11832.3471518726,12060.4511950013,5515.31257998373,6045.99543672206,6994.97998049998,12457.8166805894,11859.5002741294,11309.6566629154,18888.0621288804,20700.337814487,20404.8721211246,7302.69099355773,7247.23087808127,7576.50066545827,11565.9681474663,12263.0795314611,12263.4860736069,12949.4898319841,12516.8496273293,11933.8008834369,18854.619821426,17904.8870576895,18827.3344255371,11897.9958304553,13181.4688675739,12752.5806107737,13422.5857444137,13503.5586775081,13816.5113360218,14200.9684572848,13984.6470571702,13824.4777790018,14479.920450052,15963.6997515531,16647.0763795076,13643.5533847381,14205.2825138376,14892.0693372157,13879.7241794309,13255.5823428072,13960.2509520232,12839.5082964748,12363.179477711,11741.3205737813,4303.8276684655,193.759724481125,3996.19709456819,15943.0641121743,16002.3632745797,16611.6932294599,7379.66317206168,8970.85956960648,8747.66727094138,15943.3851010457,14541.4896119631,13183.4526535315,311.086551327095,8.91367023866042,6.53694870780782,7946.03283409812,7764.10970017143,8741.26801390523,15210.6104377342,14356.8711408997,14938.7343233414,11749.2073264769,11156.5300858871,10670.1508145483,13.0854374659748,8.35775813432156,9.74944747433165,15148.7795734504,16338.0138373435,16267.5549642317,13188.8371769593,13341.6762773929,12842.419643162,12359.1477412339,9397.69186487399,12849.8933951847
,32,18738.5727419237,19044.4718794659,20171.8007948726,8043.77319507829,8070.40836590906,8800.62165521742,13553.71616362,12219.6511656187,13199.1182294459,12603.9252196954,9387.22068134611,10928.8243476264,18490.130676676,18867.7529366335,19429.9437094026,12295.9901477836,12190.8514100934,12336.7391891878,5666.01347649087,6217.54813048369,7145.93752076233,12572.6639883895,11965.9069462695,12597.9820177496,18980.9062162529,20780.5046685193,20483.5565874328,7889.94121978202,7926.51381774781,8027.54759326879,11735.8920945521,12469.8828520856,12415.3151691156,13044.1026721889,12592.0382550615,12007.2176396449,19104.4969099474,18300.5903317733,19094.9035756088,11983.2563607362,13307.3966317261,12854.3543190374,13606.624307866,13668.6222271113,14722.3810772249,14436.58999643,14179.7384653396,14086.7422235487,15958.3067128885,17483.0529583941,17829.43365136,13877.6753651941,14429.1053971862,15079.3671360549,13983.5800172564,13371.7375939271,14173.652126861,13255.8425973344,12600.0049320679,12101.8892930176,6742.45760942437,350.255519198168,6376.99940803159,16147.1418236063,16196.4163957924,16821.1477105323,9736.99350582287,11415.41263071,11294.2734707854,16152.9911720832,14690.5579606516,13350.671209756,546.905026943828,14.1283465055058,12.88711828123,10786.8790870606,10672.7922944608,11585.6667788408,15283.2908651722,14432.9947556658,15049.515619313,11892.6652020381,11248.7211752785,10784.4263734921,29.2607627019106,22.5729287187405,11.4226770668147,15401.1221269393,16640.6128394292,16556.0342388967,13227.8366654588,13371.3122253265,12887.5985307628,12612.6530787465,9570.23376804163,13092.8860951504
,33,18773.8816618104,19038.9410895653,20173.6883279113,8238.7506330545,8222.06932987723,9011.93109600543,13909.2838862747,12375.5502989907,13419.9782936768,12696.1321218634,9455.77183293377,11014.8336331311,18510.2374977982,18882.8083579698,19435.1293031227,12566.2128795198,12389.5874116494,12504.3321082322,5774.50190797799,6340.54390749799,7263.51158258517,12669.7263794903,12048.5325383384,13469.0147569229,19035.674766323,20836.4723711522,20553.4196163452,8301.11841770056,8400.95814759916,8330.82657114896,11823.6033933723,12572.8603387222,12503.7495490603,13114.3310644708,12661.421834279,12066.1323316916,19289.330068458,18578.2893441513,19303.8659927778,11998.089046662,13352.1345286954,12880.8727924569,13699.4809307123,13745.7567854219,15184.0106732791,14611.6856770137,14328.7624230663,14277.6197111933,16944.1877048011,18500.4349597438,18614.7095157395,13964.9429131227,14514.9228188282,15158.5692606679,14029.2504074587,13429.8733742342,14281.4475423463,13533.273223357,12773.8255058861,12344.9861871995,9704.00520602909,610.573961876542,9430.88222262475,16183.8676709042,16245.9796774511,16877.705703879,11692.720982251,13293.3300758897,13309.9259794972,16289.1477493794,14805.5047611955,13467.46366306,957.439986750197,31.4403839367515,31.4692802124646,13009.0335646836,12976.9774947437,13751.1481960621,15345.9548907586,14475.5387958252,15121.932136894,11986.8496461751,11320.0207756591,10880.1072157838,44.8851361707566,46.9400276101778,25.651072241697,15560.9714238399,16831.5621572051,16753.1921737837,13271.220572243,13404.9056423631,12911.8623116365,12792.3376158719,9705.12070207849,13277.3680265531
,34,18787.9768824688,19031.2903265443,20182.351545495,8369.46006391475,8331.80453762793,9155.89224164996,14117.2278199605,12480.6250694921,13559.9965670371,12768.8228682295,9491.99649817554,11101.9024564456,18520.6018139206,18885.4219922771,19436.7649501084,12695.232257973,12503.427708248,12591.0283186559,5859.58156420011,6429.02240403949,7344.48297992492,12727.8564747742,12113.1806218239,14032.0971804443,19072.0808108991,20878.5990670378,20600.3508203246,8560.32313070378,8685.06499126422,8510.13484956556,11860.7709965666,12628.5577348583,12540.4509504308,13159.5756932929,12700.0391262788,12112.7692211648,19409.6556471287,18782.9931315525,19451.9376513027,11954.8601180576,13336.2016613989,12861.3124715007,13727.6623169047,13774.5045919517,15380.7062427599,14737.6092955035,14442.493682659,14412.2755387431,17609.5975742281,19185.8812984392,19145.3976993183,13975.8857596909,14522.7415723781,15155.214833302,14046.3917378929,13457.0808455599,14306.9631163579,13733.6145651587,12902.3622561907,12536.8326076684,12399.9294220795,1060.68141915526,12299.2091767192,16152.3852447458,16227.167502467,16857.6278262918,13054.3288260373,14467.6924455051,14597.1560606807,16384.1929928632,14872.832106538,13540.1473977716,1656.0890662292,40.7596095698891,48.1628457839606,14309.6319511602,14361.9106962439,14965.9937267937,15373.6918520779,14518.2735598841,15178.8375632091,12046.9493051372,11366.3196017335,10943.128844662,87.2308097300602,78.2380966736018,50.1091433838183,15632.7379551605,16950.1212424911,16876.9899417867,13258.8413265043,13427.3883337136,12910.5691757034,12926.4806490718,9818.93672680648,13403.9933061863
,35,18802.680534774,19034.0817187553,20186.1368031334,8451.24223520708,8412.76683575535,9253.70990649101,14252.7083111762,12561.6922218092,13647.3750296731,12822.5522090441,9515.30911472412,11158.1765026717,18516.013282152,18873.538944967,19441.2634767877,12761.5895740388,12543.0709738908,12641.0449608388,5903.93964416119,6476.9666872639,7393.5920344491,12760.378227954,12161.3012879459,14376.3203671661,19099.3711357526,20904.7770761818,20627.910202806,8717.20405912897,8855.67556530494,8622.27076726188,11858.4915549077,12644.0378600784,12549.2984558832,13173.1229505652,12723.0373934527,12133.5508649011,19508.3230725066,18928.3062091139,19558.5294879756,11906.5670837959,13300.057750816,12830.46623797,13726.8286482787,13772.2763000615,15426.4957992288,14807.5299176362,14520.7864379002,14508.9446863033,18052.6075197901,19651.5030566029,19506.2917378289,13934.7697768323,14487.6858184662,15119.9604091326,14037.3679083213,13455.7971549543,14299.7043534644,13857.4833214369,12980.3006654859,12657.9932274729,14578.5802057907,1815.53671389939,14715.3531581283,16097.8480364187,16185.9153275963,16808.8379101253,13842.8485312234,15035.7245883009,15251.208526916,16428.184274552,14917.3507359549,13579.6753185793,2796.09578174237,82.8194354676116,94.6050765106047,14835.4238039513,14938.9204006493,15439.8491460268,15395.5460495094,14522.4634034045,15199.3660206825,12083.9211839819,11403.9529203032,10983.6711322418,154.758028307692,143.78438274286,76.6481370764013,15674.5295830364,17004.2770587281,16915.889858229,13241.872187382,13436.2272696419,12914.6724750253,13012.434664971,9915.01190215435,13492.6010989472
,36,18800.5798762511,19056.4534929997,20191.8772213205,8509.77362095386,8488.70686132967,9320.28299356636,14317.7535147603,12612.228485891,13707.6246678855,12858.2461746567,9525.34893167595,11203.8915067519,18507.6233129661,18855.7605449966,19442.2532679912,12791.7939962743,12570.4941848655,12671.3038488835,5954.88790324421,6517.15865558706,7425.88725366886,12787.4976879844,12203.5264932497,14593.1289258278,19126.8031841169,20924.6103729181,20641.9832036719,8810.72216821935,8945.87119123892,8681.08563079161,11866.7518583736,12660.393940136,12552.4069175195,13188.2716357339,12726.1500063756,12136.7005946423,19592.2886305634,19053.4191853852,19635.5959374724,11845.0772369604,13244.1655268397,12788.3532136566,13720.3804583912,13760.9594065965,15418.5416975194,14863.9804159349,14573.8161809242,14575.3931605585,18360.516735072,19976.490405112,19761.8154844014,13888.5411930525,14429.9278379857,15057.3751653148,14036.8301635595,13447.1673134672,14289.9471830006,13942.7922984271,13027.7784161094,12750.6719818156,16133.4735705055,3020.22904965952,16486.5671482493,16034.9092794197,16125.0374078616,16739.4454225255,14251.1990665479,15279.4332995749,15533.06124081,16465.2208519594,14927.2204592792,13599.9390109638,4508.98811283256,138.411161510713,166.067539427273,14991.9915096855,15106.6862370363,15593.5808437496,15387.0730177819,14533.9979076883,15208.0982504957,12094.5308225063,11425.1970969637,10996.3808978568,289.667101025483,248.187473792735,146.16605445681,15682.1780438208,17018.8675945969,16957.4357642443,13223.2527541792,13419.6345588907,12912.4352906199,13071.2421167136,9995.3990225229,13569.7691200098
,37,18802.5017862225,19054.8455171002,20376.8431814607,8549.51356477836,8526.03185384789,9364.52518716639,14371.0176016399,12657.3288951513,13739.9820312562,12881.6659229622,9555.96972990465,11230.5387129381,18499.1051762477,18842.0160794002,19438.9928309312,12794.5300789051,12578.6934612144,12684.2900818655,5985.50454572492,6556.0897752674,7460.40337971778,12809.2959046151,12224.6218255348,14725.5608249522,19142.3904223158,20946.6508471961,20666.5100979678,8870.51261253832,9001.69683653765,8719.68069199495,11862.2971201802,12659.9912945844,12547.1251714811,13193.4989705734,12728.1506327893,12139.0555657693,19645.099809842,19140.8343689035,19698.0587135416,11794.2235224501,13199.3599981586,12755.9787808662,13708.4751069381,13741.9823730334,15382.0353688414,14889.3796228853,14609.8679140937,14607.3442921398,18575.4917824698,20214.4687145208,19948.5299903548,13830.1675362495,14364.1773435101,15007.5155992754,14011.9240053451,13564.1268200143,14278.0684384165,14011.327276531,13057.5854329591,12801.9359157902,17169.2925915748,4980.15725762619,17674.9072856354,15973.8164530504,16048.8942678606,16678.4218843754,14430.2155845644,15346.621182135,15635.6371133945,16472.9066737351,14929.3295932537,13616.9712400419,7009.29311140105,248.023311143974,295.669335609664,15061.2290750895,15155.2447335889,15663.3308909253,15394.6632121777,14531.5601924683,15198.0071795253,12105.4022316602,11441.5771485744,11015.6092393763,517.829581882454,444.899400371152,264.497050499671,15691.5009257948,17018.5901802301,16953.6319248394,13203.0219412511,13398.7491957705,12911.8926340372,13107.62979573,10056.2355163306,13633.5035861368
,38,18804.297668674,19049.2983147005,20559.5221538297,8591.2374481444,8544.56818336306,9395.35217893493,14415.3033110369,12691.9902737478,13778.1994599811,12893.011645827,9571.18607042631,11262.8344841452,18481.3854057924,18823.99699346,19414.7655309531,12793.3331343041,12588.9591836875,12682.4041938368,6020.88202238844,6588.47313583426,7502.27393744419,12830.0947257146,12223.4568433427,14828.0352693241,19141.5211128338,20959.5469265402,20683.7778131019,8908.04105283244,9033.92842497418,8738.77093539676,11858.4605721228,12655.8084655723,12545.8337872899,13189.7300692888,12725.4574618771,12126.0491555465,19694.8127996136,19214.7046841533,19754.3059352272,11735.5066370233,13154.3935046023,12714.6258410718,13687.3123648519,13706.2023201719,15356.3156654295,14918.5398677242,14648.2249621738,14630.7435568034,18739.8744999918,20390.2825681054,20093.013251877,13773.9488377997,14312.3130236523,14956.0255363158,14005.1771608511,13550.612850893,14275.4257919244,14070.5033253751,13086.3159608472,12862.2287990932,17868.5052439266,7664.12896342747,18483.6444301637,15926.0409333504,15983.3091253641,16622.3349047671,14491.6049740952,15357.793664482,15655.6258966266,16480.480232497,14926.3397174122,13627.4565524057,9784.38842805726,427.778991178141,521.25817779029,15099.5306461479,15165.5040395476,15705.2872042829,15372.9904026889,14530.5687281597,15188.5509262794,12114.9048380898,11450.2217426213,11022.2828032641,932.491509179001,758.502411018174,481.990594260365,15665.5369118178,16997.4080001658,16946.2068565081,13185.6386503447,13370.8541664915,12881.3509809205,13143.4181846519,10116.0364798618,13693.9960651317
,39,18806.0620302889,19033.8928511032,20734.8458875256,8603.94287998362,8549.64753399926,9399.38741430205,14443.5740588335,12721.9877008055,13793.2120442753,12911.9897882332,9575.80057978106,11285.6500402598,18473.2692892053,18801.9608939922,19380.0800026383,12764.2683704982,12586.0940962852,12677.704508469,6040.83499351004,6616.68195905046,7511.94612809861,12844.1075813356,12225.732362111,14890.2792998834,19143.4928665168,20960.0397270527,20684.9365899124,8921.44267181261,9045.90144860314,8737.98953774477,11837.4926845554,12639.1418846799,12525.8549226572,13159.3264225291,12718.0419006778,12104.9349402915,19729.993937669,19272.5503879519,19788.3143012603,11683.0838150285,13120.8410563801,12670.5430937602,13651.0899578017,13674.0810465459,15317.5431234346,14917.6281878445,14661.3774172892,14643.0133157053,18873.4738650978,20523.9606473276,20204.5369740636,13711.428918981,14251.0751662646,14904.0494605558,13987.6640733175,13671.7041834599,14254.6576931792,14103.9131145479,13096.9445526446,12888.7672689387,18334.8822611167,10620.0181122812,19008.157076128,15875.6190694509,15929.4670722079,16573.4131557595,14462.9263975107,15310.0787442601,15631.8612756983,16455.3449876857,14910.1141980423,13609.2097668035,12219.8432665197,751.040837894446,933.785571879861,15094.5556762516,15149.1182568118,15698.6016323404,15352.3244566142,14508.9943350596,15164.3586573309,12117.5202085747,11452.8657759886,11019.1446221939,1621.58274335512,1300.18326305657,846.543474841272,15657.8831579949,16973.8112753801,16897.1564195131,13151.4721838839,13351.7421496953,12862.0141518221,13161.8168888117,10163.6650701383,13724.7484643517
,40,18808.1363651948,19019.7969170507,20720.42429482,8600.58821603868,8572.85392778358,9393.10398783709,14450.3090570496,12735.1403102611,13807.8701685823,12935.0943941885,9552.12669830164,11309.9996599463,18464.5358453856,18774.3090986184,19345.2207355791,12723.093590043,12573.0758034683,12677.8790725625,6056.56158229797,6644.37652433363,7504.28299539708,12855.9403155245,12236.1687965654,14940.1556550839,19141.8296262539,20948.961534987,20661.1531188319,8919.16118019845,9042.10464051282,8717.61186615042,11815.6902902682,12629.768603334,12500.1691309009,13128.3002075777,12704.3503158442,12075.2056467396,19761.8504768621,19330.6041889689,19805.3219278723,11635.3394777435,13078.0222823014,12613.1260362991,13612.5951003433,13652.1172396144,15276.3742592724,14911.4619045536,14643.8028545597,14654.599018883,18994.8054645609,20630.0934351553,20287.9972111428,13649.962233435,14183.7341857587,14848.6764879663,13985.2409148497,13805.3186737027,14237.7264806282,14115.7530423637,13102.3958713381,12896.8652487941,18684.9435384749,13451.6955698306,19381.5860335484,15801.3170845849,15885.7740683023,16509.4935948007,14385.8614775658,15237.5035153036,15576.8513217508,16419.0027430192,14866.3383543125,13581.1368188704,14315.6576267883,1300.95386265231,1592.34426327073,15067.2744744811,15130.8054619737,15678.8506429103,15314.6951613105,14473.4742170965,15129.5183693384,12101.3752838397,11463.6820695797,10998.2608307765,2722.7498285003,2188.72062403646,1493.10507655021,15637.2677842711,16936.9445373695,16855.4186642796,13123.0469793964,13327.5454507984,12844.1243284737,13165.4107310453,10214.4060987747,13728.2532781177
